#     BM29  -  E.S.R.F.  - Mon Dec 14 21:17:26 2009
#S 96 scan 23.9756 25.5857 669 1
#T 1 (Seconds)
# file name: /data/bm29/inhouse/blc5221//Pd-foil-test.1.1.1.1.1.1.1
# -------------------------------------------------------
# monochromator:  Si (1 1 1) flat
# adopted d spacing  3.13467 Angstroems
# first crystal initial temperature -163.617 C
# primary slit vertical aperture 0.2 mm
# experimental slit horizontal aperture 4 mm
# experimental slit vertical aperture 10 mm
# initial ring current 90.3517 mA
# electrometer ranges for I0 - 1e-06 mA, I1 - 3e-07 mA (I2 - 3e-07 mA)
# -------------------------------------------------------
# EXAFS scan with optimized energy mesh
# parameter file name: /data/bm29/inhouse/blc5221//Pd-Si111-test.par
# scan parameter file name: /data/bm29/inhouse/blc5221//Pd-test.par
# Energy limits  23.9756 - 25.5857 KeV
# Detuning = 0 Loeffen, Piezzo position: init=0, end=0
# acquisition time per scan point 1 s
# target I0 counts for feedback (type 0) init=0, end=0 counts/s, tif = 1, tiw = 0.2
# -------------------------------------------------------
#N 15
#L E[keV]  alpha  I0  I1  I2  point_nb  qg1  T1  T2  E_hdh[keV]  ref  log_i1_i2  S[cal1]  S[cal2]  elapseT
23.968425088 -1.23795 974924 3362056 1012101 1 -20.5995 0 0 23.9868 1.20052 1.20052 0 0 1.94441
23.973483671 -1.23811 1047176 3611810 1087404 2 -20.5995 0 0 23.9868 1.20042 1.20042 0 0 3.76313
23.978541254 -1.2382 1047394 3612874 1087612 3 -20.5995 0 0 23.9873 1.20052 1.20052 0 0 5.63265
23.983462464 -1.23873 1046066 3610210 1087614 4 -20.5995 0 0 23.9914 1.19978 1.19978 0 0 7.45241
23.988524085 -1.23929 1047685 3617834 1090380 5 -20.5995 0 0 23.9959 1.19935 1.19935 0 0 9.31222
23.993449332 -1.2397 1048977 3623755 1092860 6 -20.5995 0 0 24.001 1.19871 1.19871 0 0 11.1323
23.998517011 -1.24008 1049515 3626995 1094614 7 -404.364 0 0 24.0056 1.198 1.198 0 0 12.9919
24.003446297 -1.24068 1050233 3631660 1096650 8 -404.364 0 0 24.0101 1.19743 1.19743 0 0 14.8616
24.008519032 -1.24109 1051017 3635858 1098472 9 -404.364 0 0 24.0147 1.19692 1.19692 0 0 16.6814
24.013450337 -1.24158 1052104 3641425 1100904 10 -404.364 0 0 24.0198 1.19624 1.19624 0 0 18.5414
24.01852913 -1.24215 1050676 3638545 1100761 11 -404.364 0 0 24.0243 1.19558 1.19558 0 0 20.411
24.023463473 -1.24263 1054790 3654547 1106134 12 -404.364 0 0 24.0294 1.1951 1.1951 0 0 22.2308
24.028544285 -1.24318 1056107 3661133 1108984 13 94.6061 0 0 24.034 1.19433 1.19433 0 0 24.0908
24.033486704 -1.24373 1056397 3664134 1110589 14 94.6061 0 0 24.0386 1.1937 1.1937 0 0 25.9604
24.038428123 -1.24415 1057982 3671189 1113594 15 94.6061 0 0 24.0436 1.19292 1.19292 0 0 27.7902
24.043515992 -1.24483 1059090 3677517 1116220 16 94.6061 0 0 24.0487 1.19229 1.19229 0 0 29.62
24.04846145 -1.24524 1060513 3683970 1118947 17 94.6061 0 0 24.0538 1.1916 1.1916 0 0 31.4698
24.053554376 -1.24583 1061520 3689655 1121242 18 94.6061 0 0 24.0589 1.1911 1.1911 0 0 33.3496
24.058505891 -1.24638 1062314 3694453 1123478 19 173.953 0 0 24.064 1.1904 1.1904 0 0 35.2593
24.063457406 -1.24684 1063692 3700956 1126242 20 173.953 0 0 24.0691 1.1897 1.1897 0 0 37.1291
24.068557408 -1.24744 1064585 3706251 1128644 21 173.953 0 0 24.0742 1.189 1.189 0 0 38.9589
24.073512961 -1.24793 1065476 3711180 1130916 22 173.953 0 0 24.0793 1.18832 1.18832 0 0 40.8287
24.078471552 -1.24841 1066968 3718177 1133767 23 173.953 0 0 24.0844 1.18769 1.18769 0 0 42.6485
24.083434181 -1.24897 1067489 3722054 1135647 24 173.953 0 0 24.089 1.18707 1.18707 0 0 44.5183
24.088540241 -1.24953 1068495 3727668 1138173 25 232.7 0 0 24.0936 1.18636 1.18636 0 0 46.3581
24.093505889 -1.25003 1068349 3729034 1139261 26 232.7 0 0 24.0992 1.18577 1.18577 0 0 48.2379
24.098474576 -1.25053 1058372 3696047 1129978 27 232.7 0 0 24.1038 1.18507 1.18507 0 0 50.0677
24.103444281 -1.25102 1053586 3681148 1126154 28 232.7 0 0 24.1089 1.18442 1.18442 0 0 51.8775
24.108558417 -1.25147 1069701 3739119 1144698 29 232.7 0 0 24.114 1.18371 1.18371 0 0 53.7573
24.113532161 -1.25194 1072407 3750339 1149015 30 232.7 0 0 24.1191 1.18294 1.18294 0 0 55.6174
24.118508924 -1.25249 1073927 3757703 1151884 31 299.84 0 0 24.1242 1.18241 1.18241 0 0 57.4769
24.123486705 -1.25297 1074949 3763092 1154257 32 299.84 0 0 24.1288 1.18178 1.18178 0 0 59.3068
24.128468525 -1.25343 1076013 3768556 1156722 33 299.84 0 0 24.134 1.1811 1.1811 0 0 61.0868
24.133450345 -1.25394 1076566 3772435 1158522 34 299.84 0 0 24.1386 1.18058 1.18058 0 0 62.9563
24.138434184 -1.25437 1076319 3773181 1159593 35 299.84 0 0 24.1432 1.17985 1.17985 0 0 64.7961
24.143422062 -1.2548 1073977 3766586 1158291 36 299.84 0 0 24.1483 1.17922 1.17922 0 0 66.6559
24.148553369 -1.25533 1078387 3784070 1164530 37 360.113 0 0 24.154 1.17848 1.17848 0 0 68.5058
24.153544285 -1.25568 1079400 3788951 1166844 38 360.113 0 0 24.1591 1.17779 1.17779 0 0 70.3255
24.158534181 -1.25612 1079732 3791782 1168294 39 360.113 0 0 24.1637 1.17729 1.17729 0 0 72.2053
24.163529134 -1.25655 1079974 3794243 1169885 40 360.113 0 0 24.1689 1.17658 1.17658 0 0 74.0251
24.168527107 -1.25701 1077897 3788697 1168827 41 360.113 0 0 24.174 1.17602 1.17602 0 0 75.8949
24.173526098 -1.2574 1063728 3740339 1154602 42 360.113 0 0 24.1791 1.17542 1.17542 0 0 77.7147
24.178529128 -1.25774 1071527 3769042 1164498 43 415.809 0 0 24.1843 1.17453 1.17453 0 0 79.5653
24.183532158 -1.25804 1085960 3820976 1181158 44 415.809 0 0 24.1889 1.17401 1.17401 0 0 81.4243
24.188537207 -1.25845 1086174 3823280 1182793 45 415.809 0 0 24.1941 1.17323 1.17323 0 0 83.2941
24.193545294 -1.25882 1086655 3826400 1184423 46 415.809 0 0 24.1987 1.17267 1.17267 0 0 85.1138
24.198554381 -1.25912 1086917 3828473 1185790 47 415.809 0 0 24.2038 1.17206 1.17206 0 0 86.9937
24.203422056 -1.25947 1087524 3831951 1187635 48 415.809 0 0 24.209 1.17141 1.17141 0 0 88.8734
24.208434181 -1.25986 1087621 3833768 1188814 49 463.874 0 0 24.2136 1.17089 1.17089 0 0 90.8033
24.213450345 -1.26009 1088378 3837342 1190789 50 463.874 0 0 24.2188 1.17016 1.17016 0 0 92.663
24.218469527 -1.26033 1088390 3838302 1191954 51 463.874 0 0 24.224 1.16944 1.16944 0 0 94.4829
24.223346298 -1.26069 1088046 3838458 1192787 52 463.874 0 0 24.2291 1.16878 1.16878 0 0 96.3526
24.227794777 -1.26091 1089118 3843078 1194836 53 463.874 0 0 24.2338 1.16826 1.16826 0 0 98.1824
24.231956396 -1.26094 1089511 3844606 1196069 54 463.874 0 0 24.2374 1.16763 1.16763 0 0 100.042
24.235833172 -1.26115 1090084 3847432 1197412 55 513.466 0 0 24.241 1.16724 1.16724 0 0 101.892
24.239423068 -1.26122 1090527 3849268 1198654 56 513.466 0 0 24.2446 1.16668 1.16668 0 0 103.722
24.242583673 -1.26126 1090767 3850268 1199453 57 513.466 0 0 24.2477 1.16628 1.16628 0 0 105.602
24.245458417 -1.2612 1090895 3850469 1200013 58 513.466 0 0 24.2508 1.16586 1.16586 0 0 107.421
24.247899831 -1.26124 1090919 3850723 1200377 59 513.466 0 0 24.2534 1.16562 1.16562 0 0 109.291
24.250056403 -1.26123 1091376 3852308 1201176 60 513.466 0 0 24.2555 1.16537 1.16537 0 0 111.111
24.251926095 -1.26126 1091766 3853805 1201924 61 535.592 0 0 24.2576 1.16514 1.16514 0 0 112.951
24.253507907 -1.26112 1091448 3852143 1201723 62 535.592 0 0 24.2591 1.16487 1.16487 0 0 114.821
24.254659427 -1.26123 1091531 3852850 1202229 63 535.592 0 0 24.2601 1.16464 1.16464 0 0 116.65
24.255523068 -1.26117 1091281 3851747 1201893 64 535.592 0 0 24.2607 1.16463 1.16463 0 0 118.53
24.256097809 -1.2612 1091667 3853226 1202351 65 535.592 0 0 24.2617 1.16463 1.16463 0 0 120.34
24.2565261 -1.26121 1091722 3853430 1202517 66 535.592 0 0 24.2622 1.16455 1.16455 0 0 122.16
24.25710286 -1.26121 1091602 3853024 1202503 67 522.622 0 0 24.2627 1.16445 1.16445 0 0 124.01
24.25753519 -1.26118 1091858 3853810 1202753 68 522.622 0 0 24.2633 1.16445 1.16445 0 0 125.819
24.258109931 -1.26114 1092325 3855288 1203359 69 522.622 0 0 24.2638 1.16433 1.16433 0 0 127.679
24.258542261 -1.261 1091877 3853198 1202865 70 522.622 0 0 24.2643 1.1642 1.1642 0 0 129.499
24.259118021 -1.26108 1091401 3851791 1202619 71 522.622 0 0 24.2648 1.16404 1.16404 0 0 131.359
24.259549332 -1.26106 1091728 3852903 1202876 72 522.622 0 0 24.2653 1.16411 1.16411 0 0 133.219
24.260125092 -1.26104 1091373 3851543 1202679 73 524.148 0 0 24.2658 1.16392 1.16392 0 0 135.068
24.260558422 -1.26095 1091407 3851323 1202572 74 524.148 0 0 24.2664 1.16395 1.16395 0 0 136.898
24.260987713 -1.26107 1091328 3851523 1202673 75 524.148 0 0 24.2669 1.16392 1.16392 0 0 138.768
24.261563473 -1.2611 1091595 3852571 1203056 76 524.148 0 0 24.2674 1.16388 1.16388 0 0 140.628
24.261994784 -1.26109 1091609 3852582 1203220 77 524.148 0 0 24.2679 1.16374 1.16374 0 0 142.448
24.262570544 -1.26102 1091343 3851361 1202956 78 524.148 0 0 24.2684 1.16364 1.16364 0 0 144.317
24.263003874 -1.26102 1091834 3853108 1203390 79 529.488 0 0 24.2684 1.16374 1.16374 0 0 146.157
24.263579634 -1.26097 1092261 3854402 1203972 80 529.488 0 0 24.2695 1.16359 1.16359 0 0 147.977
24.264011945 -1.26091 1091626 3851940 1203170 81 529.488 0 0 24.27 1.16362 1.16362 0 0 149.847
24.264586705 -1.26088 1091999 3853146 1203745 82 529.488 0 0 24.2705 1.16345 1.16345 0 0 151.707
24.265018015 -1.26089 1091906 3852869 1203739 83 529.488 0 0 24.2705 1.16339 1.16339 0 0 153.536
24.265592757 -1.26077 1092050 3852909 1203870 84 529.488 0 0 24.2715 1.16329 1.16329 0 0 155.406
24.266025086 -1.26081 1091791 3852155 1203590 85 531.777 0 0 24.2715 1.16332 1.16332 0 0 157.256
24.266601846 -1.26078 1091642 3851518 1203583 86 531.777 0 0 24.2726 1.16316 1.16316 0 0 159.126
24.267034176 -1.26079 1091824 3852166 1203791 87 531.777 0 0 24.2726 1.16316 1.16316 0 0 160.945
24.267610936 -1.26078 1091774 3851975 1203812 88 531.777 0 0 24.2731 1.16309 1.16309 0 0 162.805
24.268043266 -1.26062 1091784 3851373 1203762 89 531.777 0 0 24.2736 1.16298 1.16298 0 0 164.615
24.268617007 -1.26071 1091708 3851459 1203814 90 531.777 0 0 24.2741 1.16296 1.16296 0 0 166.475
24.269050337 -1.26051 1091649 3850492 1203598 91 539.407 0 0 24.2746 1.16289 1.16289 0 0 168.335
24.269626097 -1.26057 1091816 3851319 1203887 92 539.407 0 0 24.2752 1.16286 1.16286 0 0 170.214
24.270057408 -1.26052 1091517 3850075 1203647 93 539.407 0 0 24.2757 1.16274 1.16274 0 0 172.034
24.270490737 -1.26045 1091914 3851201 1204043 94 539.407 0 0 24.2762 1.1627 1.1627 0 0 173.854
24.271066497 -1.26041 1091857 3850817 1203915 95 539.407 0 0 24.2767 1.16271 1.16271 0 0 175.734
24.271497808 -1.26042 1091599 3849971 1203696 96 539.407 0 0 24.2767 1.16267 1.16267 0 0 177.564
24.272073568 -1.26037 1091824 3850570 1204042 97 542.458 0 0 24.2778 1.16254 1.16254 0 0 179.423
24.272506898 -1.26031 1091694 3849865 1204002 98 542.458 0 0 24.2783 1.16239 1.16239 0 0 181.343
24.273082658 -1.26022 1091740 3849690 1203984 99 542.458 0 0 24.2788 1.16236 1.16236 0 0 183.173
24.273513969 -1.26016 1091185 3847491 1203354 100 542.458 0 0 24.2793 1.16231 1.16231 0 0 185.053
24.274089729 -1.26013 1091649 3849011 1203922 101 542.458 0 0 24.2798 1.16223 1.16223 0 0 186.863
24.274522059 -1.26 1092032 3849892 1204303 102 542.458 0 0 24.2798 1.16214 1.16214 0 0 188.742
24.275098819 -1.25999 1091711 3848718 1203953 103 543.984 0 0 24.2809 1.16213 1.16213 0 0 190.582
24.275531148 -1.25991 1091526 3847758 1203765 104 543.984 0 0 24.2809 1.16204 1.16204 0 0 192.452
24.276107909 -1.2599 1091947 3849182 1204274 105 543.984 0 0 24.2819 1.16198 1.16198 0 0 194.262
24.276540238 -1.25984 1092102 3849519 1204261 106 543.984 0 0 24.2819 1.16208 1.16208 0 0 196.132
24.277116999 -1.25978 1091470 3847052 1203696 107 543.984 0 0 24.2829 1.16191 1.16191 0 0 197.941
24.277547309 -1.25974 1091617 3847392 1203974 108 543.984 0 0 24.2835 1.16177 1.16177 0 0 199.811
24.278125088 -1.2596 1092014 3848275 1204297 109 548.562 0 0 24.284 1.16173 1.16173 0 0 201.671
24.278556399 -1.2596 1091999 3848208 1204234 110 548.562 0 0 24.2845 1.16176 1.16176 0 0 203.491
24.278989729 -1.2596 1091234 3845527 1203513 111 548.562 0 0 24.2845 1.16167 1.16167 0 0 205.361
24.279565489 -1.25946 1091641 3846413 1203923 112 548.562 0 0 24.2855 1.16156 1.16156 0 0 207.17
24.279998819 -1.2594 1092147 3847967 1204382 113 548.562 0 0 24.2855 1.16158 1.16158 0 0 209.03
24.280574579 -1.25934 1091152 3844215 1203392 114 548.562 0 0 24.2861 1.16142 1.16142 0 0 210.89
24.281007908 -1.25921 1091537 3845100 1203772 115 558.48 0 0 24.2866 1.16134 1.16134 0 0 212.74
24.281585688 -1.25905 1091448 3844166 1203512 116 558.48 0 0 24.2876 1.16131 1.16131 0 0 214.56
24.282014979 -1.25905 1091606 3844705 1203804 117 558.48 0 0 24.2876 1.16121 1.16121 0 0 216.429
24.282592758 -1.25905 1091304 3843650 1203519 118 558.48 0 0 24.2881 1.16117 1.16117 0 0 218.289
24.283025088 -1.25897 1091306 3843350 1203465 119 558.48 0 0 24.2887 1.16114 1.16114 0 0 220.099
24.283601848 -1.25879 1091453 3843196 1203565 120 558.48 0 0 24.2892 1.16102 1.16102 0 0 221.979
24.284034178 -1.25865 1091729 3843607 1203775 121 562.295 0 0 24.2897 1.16095 1.16095 0 0 223.829
24.284610938 -1.25855 1091677 3843041 1203680 122 562.295 0 0 24.2902 1.16088 1.16088 0 0 225.638
24.285043268 -1.25853 1091545 3842518 1203523 123 562.295 0 0 24.2907 1.16087 1.16087 0 0 227.498
24.285621047 -1.25842 1092089 3843981 1204128 124 562.295 0 0 24.2912 1.16075 1.16075 0 0 229.358
24.286052358 -1.25825 1091535 3841382 1203374 125 562.295 0 0 24.2918 1.1607 1.1607 0 0 231.178
24.286630137 -1.2582 1091909 3842513 1203852 126 562.295 0 0 24.2923 1.1606 1.1606 0 0 233.048
24.287061448 -1.25811 1091545 3840874 1203261 127 564.584 0 0 24.2928 1.16066 1.16066 0 0 234.897
24.287494777 -1.25804 1091686 3841117 1203532 128 564.584 0 0 24.2928 1.1605 1.1605 0 0 236.707
24.288072557 -1.25792 1091227 3839030 1202997 129 564.584 0 0 24.2933 1.1604 1.1604 0 0 238.577
24.288505886 -1.25793 1091569 3840274 1203236 130 564.584 0 0 24.2938 1.16053 1.16053 0 0 240.457
24.289081646 -1.25775 1091277 3838572 1202858 131 564.584 0 0 24.2944 1.1604 1.1604 0 0 242.337
24.289514976 -1.25756 1090850 3836342 1202395 132 564.584 0 0 24.2949 1.1602 1.1602 0 0 244.187
24.290091755 -1.25741 1091731 3838839 1203123 133 564.584 0 0 24.2954 1.16025 1.16025 0 0 246.096
24.290523066 -1.25736 1091532 3837960 1202964 134 564.584 0 0 24.2959 1.16015 1.16015 0 0 247.996
24.291099826 -1.25728 1091602 3837909 1203145 135 564.584 0 0 24.2964 1.15999 1.15999 0 0 249.836
24.291533175 -1.25718 1091567 3837406 1202920 136 564.584 0 0 24.297 1.16004 1.16004 0 0 251.666
24.292109935 -1.25699 1091674 3837043 1202859 137 564.584 0 0 24.2975 1.16 1.16 0 0 253.485
24.292542265 -1.25683 1091543 3835985 1202772 138 564.584 0 0 24.298 1.1598 1.1598 0 0 255.365
24.293120044 -1.25671 1091488 3835334 1202555 139 569.925 0 0 24.2985 1.15981 1.15981 0 0 257.305
24.293553374 -1.25662 1091241 3834088 1202228 140 569.925 0 0 24.299 1.15975 1.15975 0 0 259.135
24.294131153 -1.25644 1091751 3835218 1202675 141 569.925 0 0 24.2996 1.15968 1.15968 0 0 260.994
24.294562464 -1.25623 1091817 3834624 1202485 142 569.925 0 0 24.3001 1.15968 1.15968 0 0 262.815
24.294995793 -1.25607 1091502 3832903 1202033 143 569.925 0 0 24.3001 1.15961 1.15961 0 0 264.674
24.295573573 -1.25595 1091500 3832427 1202031 144 569.925 0 0 24.3011 1.15949 1.15949 0 0 266.534
24.296006902 -1.25591 1091495 3832287 1201986 145 571.451 0 0 24.3016 1.15949 1.15949 0 0 268.384
24.296582663 -1.2556 1092037 3832996 1202353 146 571.451 0 0 24.3022 1.15937 1.15937 0 0 270.193
24.297017011 -1.25551 1091501 3830766 1201692 147 571.451 0 0 24.3027 1.15933 1.15933 0 0 272.063
24.297593771 -1.25539 1091443 3830095 1201572 148 571.451 0 0 24.3032 1.15926 1.15926 0 0 273.943
24.29802812 -1.2552 1091405 3829239 1201271 149 571.451 0 0 24.3032 1.15929 1.15929 0 0 275.763
24.29860488 -1.25491 1091596 3828798 1201358 150 571.451 0 0 24.3042 1.1591 1.1591 0 0 277.633
24.299035191 -1.25474 1091544 3827958 1201119 151 576.028 0 0 24.3047 1.15908 1.15908 0 0 279.482
24.29961397 -1.25457 1091609 3827535 1201083 152 576.028 0 0 24.3053 1.159 1.159 0 0 281.292
24.300048319 -1.25435 1091672 3826931 1200931 153 576.028 0 0 24.3053 1.15897 1.15897 0 0 283.162
24.300624079 -1.25405 1091395 3824802 1200304 154 576.028 0 0 24.3063 1.15893 1.15893 0 0 284.992
24.301059428 -1.25385 1091645 3824901 1200551 155 576.028 0 0 24.3068 1.15875 1.15875 0 0 286.862
24.301492758 -1.25375 1091155 3822810 1199879 156 576.028 0 0 24.3068 1.15876 1.15876 0 0 288.681
24.302070537 -1.25345 1091992 3824592 1200521 157 578.317 0 0 24.3079 1.1587 1.1587 0 0 290.541
24.302501848 -1.25333 1091022 3820757 1199502 158 578.317 0 0 24.3079 1.15854 1.15854 0 0 292.411
24.303079627 -1.25305 1091155 3820150 1199222 159 578.317 0 0 24.3089 1.15862 1.15862 0 0 294.221
24.303512956 -1.25279 1091279 3819594 1199228 160 578.317 0 0 24.3089 1.15847 1.15847 0 0 296.091
24.304090736 -1.25248 1091219 3818195 1198901 161 578.317 0 0 24.3099 1.15837 1.15837 0 0 297.96
24.304524085 -1.2524 1090817 3816471 1198252 162 578.317 0 0 24.3099 1.15846 1.15846 0 0 299.79
24.305101845 -1.25199 1091122 3815970 1198311 163 581.369 0 0 24.3105 1.15828 1.15828 0 0 301.68
24.305535193 -1.25175 1091575 3816633 1198639 164 581.369 0 0 24.311 1.15818 1.15818 0 0 303.55
24.306113973 -1.25144 1090912 3813129 1197543 165 581.369 0 0 24.3115 1.15818 1.15818 0 0 305.36
24.306546302 -1.25116 1091226 3813161 1197765 166 581.369 0 0 24.312 1.158 1.158 0 0 307.209
24.307124082 -1.25094 1091673 3813895 1197979 167 581.369 0 0 24.3125 1.15801 1.15801 0 0 309.089
24.307555392 -1.25061 1091568 3812281 1197517 168 581.369 0 0 24.3131 1.15798 1.15798 0 0 310.919
24.307990741 -1.25039 1091479 3811127 1197133 169 584.421 0 0 24.3131 1.158 1.158 0 0 312.759
24.30856852 -1.24995 1091429 3809258 1196694 170 584.421 0 0 24.3141 1.15787 1.15787 0 0 314.569
24.30900185 -1.24965 1091557 3808590 1196529 171 584.421 0 0 24.3146 1.15783 1.15783 0 0 316.448
24.309579629 -1.2493 1091143 3805781 1195900 172 584.421 0 0 24.3151 1.15762 1.15762 0 0 318.278
24.310014978 -1.24908 1090258 3801865 1194586 173 584.421 0 0 24.3151 1.15769 1.15769 0 0 320.158
24.310592757 -1.24864 1090602 3801395 1194383 174 584.421 0 0 24.3162 1.15774 1.15774 0 0 321.978
24.311023068 -1.24826 1090520 3799660 1194059 175 592.813 0 0 24.3162 1.15755 1.15755 0 0 323.84
24.311601847 -1.24775 1089888 3795540 1192967 176 592.813 0 0 24.3172 1.15738 1.15738 0 0 325.667
24.312036196 -1.24745 1089610 3793447 1192214 177 592.813 0 0 24.3172 1.15746 1.15746 0 0 327.547
24.312613975 -1.24694 1089296 3790390 1191368 178 592.813 0 0 24.3177 1.15737 1.15737 0 0 329.357
24.313047305 -1.24662 1088634 3786877 1190247 179 592.813 0 0 24.3183 1.15738 1.15738 0 0 331.237
24.313624084 -1.24605 1088947 3785818 1190104 180 592.813 0 0 24.3193 1.15722 1.15722 0 0 333.047
24.314059433 -1.24581 1088509 3783392 1189381 181 597.391 0 0 24.3193 1.15719 1.15719 0 0 334.896
24.314494782 -1.24546 1088957 3783600 1189480 182 597.391 0 0 24.3198 1.15716 1.15716 0 0 336.756
24.315072561 -1.24483 1089775 3784084 1189737 183 597.391 0 0 24.3203 1.15707 1.15707 0 0 338.636
24.315503871 -1.24437 1089558 3781564 1189171 184 597.391 0 0 24.3209 1.15688 1.15688 0 0 340.446
24.316081651 -1.24389 1090404 3782703 1189379 185 597.391 0 0 24.3214 1.15701 1.15701 0 0 342.326
24.316516 -1.2435 1090367 3781113 1188949 186 597.391 0 0 24.3219 1.15695 1.15695 0 0 344.135
24.317094779 -1.24283 1090155 3777830 1188199 187 601.206 0 0 24.3224 1.15671 1.15671 0 0 346.035
24.317529128 -1.24244 1090464 3777441 1187945 188 601.206 0 0 24.3229 1.15682 1.15682 0 0 347.845
24.318107907 -1.24171 1090842 3775981 1187689 189 601.206 0 0 24.3235 1.15665 1.15665 0 0 349.715
24.318542256 -1.24119 1090988 3774510 1187211 190 601.206 0 0 24.324 1.15666 1.15666 0 0 351.534
24.319120035 -1.24049 1090908 3771595 1186555 191 601.206 0 0 24.3245 1.15644 1.15644 0 0 353.394
24.319551345 -1.23998 1090877 3769592 1185871 192 601.206 0 0 24.325 1.15649 1.15649 0 0 355.254
24.320130144 -1.23928 1091353 3768598 1185785 193 604.257 0 0 24.3256 1.1563 1.1563 0 0 357.104
24.320563473 -1.23865 1090822 3764364 1184384 194 604.257 0 0 24.3261 1.15636 1.15636 0 0 358.914
