ESPIA FRELON Image 6105: Azimuth/2-theta
2-Theta Angle (Degrees)
Intensity
       2048
 3.3609154E+00  1.4684916E-01
 3.3794439E+00  1.4770791E-01
 3.3979723E+00  1.4908381E-01
 3.4165008E+00  1.5131953E-01
 3.4350295E+00  1.5186614E-01
 3.4535580E+00  1.5170966E-01
 3.4720864E+00  1.5005416E-01
 3.4906151E+00  1.4790045E-01
 3.5091436E+00  1.4641052E-01
 3.5276721E+00  1.4629711E-01
 3.5462008E+00  1.4733118E-01
 3.5647292E+00  1.4494632E-01
 3.5832577E+00  1.4337753E-01
 3.6017864E+00  1.4287120E-01
 3.6203148E+00  1.4191501E-01
 3.6388433E+00  1.4119577E-01
 3.6573720E+00  1.4228812E-01
 3.6759005E+00  1.4121474E-01
 3.6944289E+00  1.4110388E-01
 3.7129576E+00  1.4320078E-01
 3.7314861E+00  1.4155547E-01
 3.7500145E+00  1.4194231E-01
 3.7685430E+00  1.4219379E-01
 3.7870717E+00  1.4157143E-01
 3.8056002E+00  1.4162749E-01
 3.8241286E+00  1.4140439E-01
 3.8426573E+00  1.4149065E-01
 3.8611858E+00  1.4076798E-01
 3.8797143E+00  1.4121591E-01
 3.8982430E+00  1.4150964E-01
 3.9167714E+00  1.4022198E-01
 3.9352999E+00  1.3900451E-01
 3.9538286E+00  1.3753001E-01
 3.9723570E+00  1.3563752E-01
 3.9908855E+00  1.3338226E-01
 4.0094142E+00  1.3307434E-01
 4.0279427E+00  1.3297071E-01
 4.0464711E+00  1.3159280E-01
 4.0649996E+00  1.3073421E-01
 4.0835280E+00  1.3214602E-01
 4.1020570E+00  1.3224575E-01
 4.1205854E+00  1.3447395E-01
 4.1391139E+00  1.3411133E-01
 4.1576424E+00  1.3217168E-01
 4.1761708E+00  1.3322926E-01
 4.1946993E+00  1.3150020E-01
 4.2132282E+00  1.2957671E-01
 4.2317567E+00  1.2744007E-01
 4.2502851E+00  1.2679341E-01
 4.2688136E+00  1.2686013E-01
 4.2873421E+00  1.2772803E-01
 4.3058705E+00  1.2828097E-01
 4.3243990E+00  1.2943634E-01
 4.3429279E+00  1.2879387E-01
 4.3614564E+00  1.2828983E-01
 4.3799849E+00  1.2810941E-01
 4.3985133E+00  1.2561572E-01
 4.4170418E+00  1.2507689E-01
 4.4355702E+00  1.2687756E-01
 4.4540992E+00  1.2828314E-01
 4.4726276E+00  1.2797898E-01
 4.4911561E+00  1.2712909E-01
 4.5096846E+00  1.2519196E-01
 4.5282130E+00  1.2004614E-01
 4.5467415E+00  1.1758348E-01
 4.5652699E+00  1.1883377E-01
 4.5837989E+00  1.2054295E-01
 4.6023273E+00  1.2140150E-01
 4.6208558E+00  1.2072447E-01
 4.6393843E+00  1.2098194E-01
 4.6579127E+00  1.1937823E-01
 4.6764412E+00  1.1790062E-01
 4.6949701E+00  1.1696010E-01
 4.7134986E+00  1.1560836E-01
 4.7320271E+00  1.1560095E-01
 4.7505555E+00  1.1558033E-01
 4.7690840E+00  1.1628404E-01
 4.7876124E+00  1.1646288E-01
 4.8061414E+00  1.1487876E-01
 4.8246698E+00  1.1388660E-01
 4.8431983E+00  1.1476088E-01
 4.8617268E+00  1.1522477E-01
 4.8802552E+00  1.1851592E-01
 4.8987837E+00  1.2166020E-01
 4.9173121E+00  1.2210477E-01
 4.9358411E+00  1.2242713E-01
 4.9543695E+00  1.2119030E-01
 4.9728980E+00  1.1838339E-01
 4.9914265E+00  1.1415944E-01
 5.0099549E+00  1.1269742E-01
 5.0284834E+00  1.1246494E-01
 5.0470123E+00  1.1412281E-01
 5.0655408E+00  1.1469111E-01
 5.0840693E+00  1.1146323E-01
 5.1025977E+00  1.0914949E-01
 5.1211262E+00  1.0887659E-01
 5.1396546E+00  1.0945613E-01
 5.1581836E+00  1.0923851E-01
 5.1767120E+00  1.1077311E-01
 5.1952405E+00  1.1227759E-01
 5.2137690E+00  1.1067766E-01
 5.2322974E+00  1.0867668E-01
 5.2508259E+00  1.0801903E-01
 5.2693543E+00  1.0875248E-01
 5.2878833E+00  1.0788352E-01
 5.3064117E+00  1.0769027E-01
 5.3249402E+00  1.0823569E-01
 5.3434687E+00  1.0603199E-01
 5.3619971E+00  1.0532952E-01
 5.3805256E+00  1.0639230E-01
 5.3990545E+00  1.0616153E-01
 5.4175830E+00  1.0432576E-01
 5.4361115E+00  1.0332093E-01
 5.4546399E+00  1.0201622E-01
 5.4731684E+00  1.0168161E-01
 5.4916968E+00  1.0503627E-01
 5.5102258E+00  1.0702810E-01
 5.5287542E+00  1.0545531E-01
 5.5472827E+00  1.0391903E-01
 5.5658112E+00  1.0301360E-01
 5.5843396E+00  1.0262516E-01
 5.6028681E+00  1.0286929E-01
 5.6213965E+00  1.0183592E-01
 5.6399255E+00  1.0275061E-01
 5.6584539E+00  1.0419393E-01
 5.6769824E+00  1.0417957E-01
 5.6955109E+00  1.0560453E-01
 5.7140393E+00  1.0600845E-01
 5.7325678E+00  1.0510589E-01
 5.7510967E+00  1.0275707E-01
 5.7696252E+00  1.0287313E-01
 5.7881536E+00  1.0401241E-01
 5.8066821E+00  1.0437775E-01
 5.8252106E+00  1.0371637E-01
 5.8437390E+00  9.9646807E-02
 5.8622680E+00  9.8730661E-02
 5.8807964E+00  9.9028692E-02
 5.8993249E+00  1.0098187E-01
 5.9178534E+00  1.0167604E-01
 5.9363818E+00  9.8967664E-02
 5.9549103E+00  9.8929852E-02
 5.9734387E+00  9.8010637E-02
 5.9919677E+00  9.7575486E-02
 6.0104961E+00  9.6417643E-02
 6.0290246E+00  9.4403856E-02
 6.0475531E+00  9.4202273E-02
 6.0660815E+00  9.5493324E-02
 6.0846100E+00  9.7721085E-02
 6.1031389E+00  9.7156897E-02
 6.1216674E+00  9.7605735E-02
 6.1401958E+00  9.8327383E-02
 6.1587243E+00  9.8206267E-02
 6.1772528E+00  9.6250363E-02
 6.1957812E+00  9.4907731E-02
 6.2143102E+00  9.4733030E-02
 6.2328386E+00  9.3856871E-02
 6.2513671E+00  9.2493802E-02
 6.2698956E+00  8.9042604E-02
 6.2884240E+00  8.7819085E-02
 6.3069525E+00  8.9441195E-02
 6.3254809E+00  9.2167273E-02
 6.3440099E+00  9.3599945E-02
 6.3625383E+00  9.3126103E-02
 6.3810668E+00  9.3214244E-02
 6.3995953E+00  9.2474855E-02
 6.4181237E+00  9.1448031E-02
 6.4366522E+00  9.0308309E-02
 6.4551811E+00  9.0412311E-02
 6.4737096E+00  8.9779027E-02
 6.4922380E+00  9.0362012E-02
 6.5107665E+00  9.1963105E-02
 6.5292950E+00  9.0227820E-02
 6.5478234E+00  8.8262178E-02
 6.5663519E+00  8.6598583E-02
 6.5848808E+00  8.7738216E-02
 6.6034093E+00  8.9027718E-02
 6.6219378E+00  8.8970132E-02
 6.6404662E+00  8.8886693E-02
 6.6589947E+00  8.8561878E-02
 6.6775231E+00  8.7485544E-02
 6.6960521E+00  8.4319696E-02
 6.7145805E+00  8.3265528E-02
 6.7331090E+00  8.4974222E-02
 6.7516375E+00  8.4598824E-02
 6.7701659E+00  8.2764797E-02
 6.7886944E+00  8.2842223E-02
 6.8072233E+00  8.5134134E-02
 6.8257518E+00  8.5854664E-02
 6.8442802E+00  8.3623566E-02
 6.8628087E+00  8.2029924E-02
 6.8813372E+00  8.2908981E-02
 6.8998656E+00  8.3382964E-02
 6.9183941E+00  8.3574764E-02
 6.9369230E+00  8.4514514E-02
 6.9554515E+00  8.3832420E-02
 6.9739799E+00  8.0475420E-02
 6.9925084E+00  7.8682005E-02
 7.0110369E+00  8.2353897E-02
 7.0295653E+00  8.4109448E-02
 7.0480943E+00  8.3165556E-02
 7.0666227E+00  8.2867198E-02
 7.0851512E+00  8.1740469E-02
 7.1036797E+00  8.0757618E-02
 7.1222081E+00  8.1926316E-02
 7.1407366E+00  8.4622569E-02
 7.1592655E+00  8.3476149E-02
 7.1777940E+00  8.0453828E-02
 7.1963224E+00  7.9870544E-02
 7.2148509E+00  7.9436280E-02
 7.2333794E+00  7.9450823E-02
 7.2519078E+00  7.9668336E-02
 7.2704363E+00  8.0285899E-02
 7.2889652E+00  8.0461286E-02
 7.3074937E+00  8.0645517E-02
 7.3260221E+00  8.0007672E-02
 7.3445506E+00  7.8396045E-02
 7.3630791E+00  7.8657314E-02
 7.3816075E+00  7.8930251E-02
 7.4001365E+00  7.9764739E-02
 7.4186649E+00  7.9468444E-02
 7.4371934E+00  7.9400405E-02
 7.4557219E+00  8.0073558E-02
 7.4742503E+00  8.1025302E-02
 7.4927788E+00  7.9307802E-02
 7.5113077E+00  7.7408880E-02
 7.5298362E+00  7.7948228E-02
 7.5483646E+00  7.7867508E-02
 7.5668931E+00  7.9126604E-02
 7.5854216E+00  7.9081826E-02
 7.6039500E+00  7.6896295E-02
 7.6224785E+00  7.4295782E-02
 7.6410074E+00  7.4137509E-02
 7.6595359E+00  7.7338517E-02
 7.6780643E+00  7.9095885E-02
 7.6965928E+00  7.6064594E-02
 7.7151213E+00  7.3857397E-02
 7.7336497E+00  7.3957518E-02
 7.7521787E+00  7.2892249E-02
 7.7707071E+00  7.3901519E-02
 7.7892356E+00  7.5380862E-02
 7.8077641E+00  7.3813833E-02
 7.8262925E+00  7.1995288E-02
 7.8448210E+00  7.1870863E-02
 7.8633499E+00  7.2907843E-02
 7.8818784E+00  7.3564321E-02
 7.9004068E+00  7.4261539E-02
 7.9189353E+00  7.4815944E-02
 7.9374638E+00  7.3982723E-02
 7.9559922E+00  7.2598651E-02
 7.9745207E+00  7.1071878E-02
 7.9930496E+00  7.1737029E-02
 8.0115776E+00  7.2375707E-02
 8.0301065E+00  7.0812747E-02
 8.0486355E+00  6.9194153E-02
 8.0671635E+00  6.8659775E-02
 8.0856924E+00  6.8951197E-02
 8.1042204E+00  6.8570912E-02
 8.1227493E+00  6.8728305E-02
 8.1412773E+00  6.8230696E-02
 8.1598063E+00  6.8506464E-02
 8.1783352E+00  7.0547312E-02
 8.1968632E+00  7.0493639E-02
 8.2153921E+00  6.9103673E-02
 8.2339201E+00  6.8555363E-02
 8.2524490E+00  6.9351032E-02
 8.2709770E+00  6.8975464E-02
 8.2895060E+00  6.8018846E-02
 8.3080349E+00  6.8402134E-02
 8.3265629E+00  6.6962205E-02
 8.3450918E+00  6.6572182E-02
 8.3636198E+00  6.6557229E-02
 8.3821487E+00  6.5689020E-02
 8.4006777E+00  6.5323770E-02
 8.4192057E+00  6.5687880E-02
 8.4377346E+00  6.5598957E-02
 8.4562626E+00  6.5047100E-02
 8.4747915E+00  6.5597050E-02
 8.4933195E+00  6.5343104E-02
 8.5118484E+00  6.6083282E-02
 8.5303774E+00  6.6657647E-02
 8.5489054E+00  6.6935062E-02
 8.5674343E+00  6.7388095E-02
 8.5859623E+00  6.7116879E-02
 8.6044912E+00  6.7859940E-02
 8.6230192E+00  6.6330977E-02
 8.6415482E+00  6.4079389E-02
 8.6600771E+00  6.2716566E-02
 8.6786051E+00  6.2884815E-02
 8.6971340E+00  6.3457586E-02
 8.7156620E+00  6.2813379E-02
 8.7341909E+00  6.1732557E-02
 8.7527199E+00  6.0491182E-02
 8.7712479E+00  6.0600381E-02
 8.7897768E+00  6.1860111E-02
 8.8083048E+00  6.2553257E-02
 8.8268337E+00  6.3227728E-02
 8.8453617E+00  6.3175716E-02
 8.8638906E+00  6.3155100E-02
 8.8824196E+00  6.3063465E-02
 8.9009476E+00  6.2510602E-02
 8.9194765E+00  6.2591530E-02
 8.9380045E+00  6.2692486E-02
 8.9565334E+00  6.3086167E-02
 8.9750614E+00  6.2183712E-02
 8.9935904E+00  6.2128607E-02
 9.0121193E+00  6.2751085E-02
 9.0306473E+00  6.3550338E-02
 9.0491762E+00  6.4308628E-02
 9.0677042E+00  6.2556453E-02
 9.0862331E+00  6.1512850E-02
 9.1047621E+00  6.1780885E-02
 9.1232901E+00  6.2030897E-02
 9.1418190E+00  6.1703958E-02
 9.1603470E+00  5.9908148E-02
 9.1788759E+00  5.8523230E-02
 9.1974039E+00  5.5671673E-02
 9.2159328E+00  5.3711601E-02
 9.2344618E+00  5.4916635E-02
 9.2529898E+00  5.6527860E-02
 9.2715187E+00  5.8291174E-02
 9.2900467E+00  6.0124319E-02
 9.3085756E+00  5.9909847E-02
 9.3271036E+00  5.8126301E-02
 9.3456326E+00  5.6895431E-02
 9.3641615E+00  5.6259625E-02
 9.3826895E+00  5.7238061E-02
 9.4012184E+00  5.8258809E-02
 9.4197464E+00  5.7130340E-02
 9.4382753E+00  5.6071199E-02
 9.4568043E+00  5.6467898E-02
 9.4753323E+00  5.6545734E-02
 9.4938612E+00  5.5949572E-02
 9.5123892E+00  5.5818599E-02
 9.5309181E+00  5.5385597E-02
 9.5494461E+00  5.6255143E-02
 9.5679750E+00  5.7541430E-02
 9.5865040E+00  5.6275256E-02
 9.6050320E+00  5.4677349E-02
 9.6235609E+00  5.4906230E-02
 9.6420889E+00  5.5182476E-02
 9.6606178E+00  5.1878154E-02
 9.6791458E+00  5.1414594E-02
 9.6976748E+00  5.3597160E-02
 9.7162037E+00  5.2596327E-02
 9.7347317E+00  5.2866533E-02
 9.7532606E+00  5.3626664E-02
 9.7717886E+00  5.3826109E-02
 9.7903175E+00  5.4656334E-02
 9.8088465E+00  5.4662492E-02
 9.8273745E+00  5.5036452E-02
 9.8459034E+00  5.4851897E-02
 9.8644314E+00  5.4290492E-02
 9.8829603E+00  5.4067980E-02
 9.9014883E+00  5.3306602E-02
 9.9200172E+00  5.2727938E-02
 9.9385462E+00  5.2918039E-02
 9.9570742E+00  5.3699799E-02
 9.9756031E+00  5.3333797E-02
 9.9941311E+00  5.3663969E-02
 1.0012660E+01  5.3941850E-02
 1.0031188E+01  5.3149957E-02
 1.0049717E+01  5.1887494E-02
 1.0068246E+01  5.1886003E-02
 1.0086774E+01  5.3046748E-02
 1.0105303E+01  5.3953279E-02
 1.0123831E+01  5.3811889E-02
 1.0142360E+01  5.3952847E-02
 1.0160889E+01  5.4833364E-02
 1.0179417E+01  5.5594787E-02
 1.0197946E+01  5.3654030E-02
 1.0216474E+01  5.3168513E-02
 1.0235003E+01  5.4220904E-02
 1.0253531E+01  5.4111492E-02
 1.0272059E+01  5.4633938E-02
 1.0290588E+01  5.2863944E-02
 1.0309116E+01  5.2061863E-02
 1.0327645E+01  5.2074213E-02
 1.0346173E+01  5.1494673E-02
 1.0364702E+01  5.1823638E-02
 1.0383230E+01  5.1576469E-02
 1.0401759E+01  5.1548481E-02
 1.0420288E+01  5.1825043E-02
 1.0438816E+01  5.1027115E-02
 1.0457345E+01  5.0383873E-02
 1.0475873E+01  5.1846169E-02
 1.0494402E+01  5.2175403E-02
 1.0512931E+01  5.1090896E-02
 1.0531459E+01  5.0719168E-02
 1.0549988E+01  5.1329684E-02
 1.0568516E+01  5.2868843E-02
 1.0587045E+01  5.2787047E-02
 1.0605573E+01  5.1227584E-02
 1.0624102E+01  5.0246675E-02
 1.0642631E+01  5.0141200E-02
 1.0661159E+01  4.9635466E-02
 1.0679688E+01  4.9122710E-02
 1.0698215E+01  5.0413936E-02
 1.0716744E+01  5.1081669E-02
 1.0735272E+01  4.9585223E-02
 1.0753801E+01  4.8570968E-02
 1.0772330E+01  4.8229404E-02
 1.0790858E+01  4.7728959E-02
 1.0809387E+01  4.8588865E-02
 1.0827915E+01  5.0278835E-02
 1.0846444E+01  4.9912792E-02
 1.0864973E+01  4.9919832E-02
 1.0883501E+01  5.0297543E-02
 1.0902030E+01  4.9847580E-02
 1.0920558E+01  4.9900807E-02
 1.0939087E+01  5.0196022E-02
 1.0957615E+01  4.8839763E-02
 1.0976144E+01  4.8077006E-02
 1.0994673E+01  4.8346668E-02
 1.1013201E+01  4.6822600E-02
 1.1031730E+01  4.6606317E-02
 1.1050258E+01  4.9178876E-02
 1.1068787E+01  5.0226696E-02
 1.1087315E+01  4.9066015E-02
 1.1105844E+01  4.8584830E-02
 1.1124372E+01  4.7687382E-02
 1.1142900E+01  4.7510576E-02
 1.1161429E+01  4.7299251E-02
 1.1179957E+01  4.7606673E-02
 1.1198486E+01  4.8655752E-02
 1.1217015E+01  4.6978977E-02
 1.1235543E+01  4.4346105E-02
 1.1254072E+01  4.4062302E-02
 1.1272600E+01  4.5151137E-02
 1.1291129E+01  4.5414373E-02
 1.1309657E+01  4.3787196E-02
 1.1328186E+01  4.3213833E-02
 1.1346715E+01  4.4740215E-02
 1.1365243E+01  4.6194255E-02
 1.1383772E+01  4.5862742E-02
 1.1402300E+01  4.5657232E-02
 1.1420829E+01  4.5352638E-02
 1.1439357E+01  4.3745596E-02
 1.1457886E+01  4.3739464E-02
 1.1476415E+01  4.6728536E-02
 1.1494943E+01  4.8386749E-02
 1.1513472E+01  4.7928538E-02
 1.1532000E+01  4.6562180E-02
 1.1550529E+01  4.5693170E-02
 1.1569057E+01  4.6264544E-02
 1.1587585E+01  4.6596631E-02
 1.1606114E+01  4.5709524E-02
 1.1624642E+01  4.5386557E-02
 1.1643171E+01  4.5704808E-02
 1.1661699E+01  4.6002015E-02
 1.1680228E+01  4.6573076E-02
 1.1698757E+01  4.5968153E-02
 1.1717285E+01  4.7493108E-02
 1.1735814E+01  4.8049562E-02
 1.1754342E+01  4.6053130E-02
 1.1772871E+01  4.4416863E-02
 1.1791399E+01  4.2839516E-02
 1.1809928E+01  4.3651987E-02
 1.1828457E+01  4.5021012E-02
 1.1846985E+01  4.5155462E-02
 1.1865514E+01  4.5786493E-02
 1.1884042E+01  4.6117023E-02
 1.1902571E+01  4.4887621E-02
 1.1921099E+01  4.3461572E-02
 1.1939628E+01  4.3561991E-02
 1.1958157E+01  4.4320047E-02
 1.1976685E+01  4.2584457E-02
 1.1995214E+01  4.0058468E-02
 1.2013741E+01  4.0145848E-02
 1.2032270E+01  4.1763157E-02
 1.2050799E+01  4.1847434E-02
 1.2069327E+01  4.1786555E-02
 1.2087856E+01  4.1908313E-02
 1.2106384E+01  4.2177487E-02
 1.2124913E+01  4.2105593E-02
 1.2143441E+01  4.1916866E-02
 1.2161970E+01  4.2117100E-02
 1.2180499E+01  4.2047735E-02
 1.2199027E+01  4.2268530E-02
 1.2217556E+01  4.2907920E-02
 1.2236084E+01  4.1473716E-02
 1.2254613E+01  3.8709685E-02
 1.2273141E+01  3.9317925E-02
 1.2291670E+01  4.1100498E-02
 1.2310199E+01  4.1961487E-02
 1.2328727E+01  4.1090414E-02
 1.2347256E+01  3.9631728E-02
 1.2365784E+01  3.8199767E-02
 1.2384313E+01  3.8329501E-02
 1.2402842E+01  3.8638383E-02
 1.2421370E+01  3.7974361E-02
 1.2439898E+01  3.9293256E-02
 1.2458426E+01  4.0214613E-02
 1.2476955E+01  3.9492238E-02
 1.2495483E+01  3.8818613E-02
 1.2514012E+01  3.8277708E-02
 1.2532541E+01  3.7744399E-02
 1.2551069E+01  3.7279774E-02
 1.2569598E+01  3.7087996E-02
 1.2588126E+01  3.7522875E-02
 1.2606655E+01  3.8399272E-02
 1.2625183E+01  3.8354144E-02
 1.2643712E+01  3.7906576E-02
 1.2662241E+01  3.9233554E-02
 1.2680769E+01  4.1469689E-02
 1.2699298E+01  4.2659484E-02
 1.2717826E+01  4.1952085E-02
 1.2736355E+01  4.0051792E-02
 1.2754884E+01  3.9275620E-02
 1.2773412E+01  4.0173646E-02
 1.2791941E+01  3.9747514E-02
 1.2810469E+01  3.8426757E-02
 1.2828998E+01  3.8220793E-02
 1.2847526E+01  3.8748164E-02
 1.2866055E+01  4.0285669E-02
 1.2884583E+01  3.9143071E-02
 1.2903111E+01  3.7493944E-02
 1.2921640E+01  3.7787028E-02
 1.2940168E+01  3.8925994E-02
 1.2958697E+01  3.9131507E-02
 1.2977225E+01  3.7701193E-02
 1.2995754E+01  3.6022320E-02
 1.3014283E+01  3.4702003E-02
 1.3032811E+01  3.3428084E-02
 1.3051340E+01  3.4176715E-02
 1.3069868E+01  3.6961243E-02
 1.3088397E+01  3.7769184E-02
 1.3106926E+01  3.6768984E-02
 1.3125454E+01  3.5755962E-02
 1.3143983E+01  3.5719313E-02
 1.3162511E+01  3.6969349E-02
 1.3181040E+01  3.7412476E-02
 1.3199568E+01  3.7403762E-02
 1.3218097E+01  3.5822153E-02
 1.3236626E+01  3.4268621E-02
 1.3255154E+01  3.4588099E-02
 1.3273683E+01  3.5057258E-02
 1.3292211E+01  3.5643972E-02
 1.3310740E+01  3.5053700E-02
 1.3329268E+01  3.3342659E-02
 1.3347796E+01  3.4019854E-02
 1.3366325E+01  3.6840253E-02
 1.3384853E+01  3.6438342E-02
 1.3403382E+01  3.5178509E-02
 1.3421910E+01  3.6622778E-02
 1.3440439E+01  3.6981367E-02
 1.3458968E+01  3.6662161E-02
 1.3477496E+01  3.5680398E-02
 1.3496025E+01  3.4649014E-02
 1.3514553E+01  3.4494810E-02
 1.3533082E+01  3.4536459E-02
 1.3551610E+01  3.6874834E-02
 1.3570139E+01  3.7411030E-02
 1.3588668E+01  3.7155792E-02
 1.3607196E+01  3.6873925E-02
 1.3625725E+01  3.5186559E-02
 1.3644253E+01  3.4717359E-02
 1.3662782E+01  3.4740373E-02
 1.3681310E+01  3.4351625E-02
 1.3699839E+01  3.4520410E-02
 1.3718368E+01  3.4992088E-02
 1.3736896E+01  3.4700967E-02
 1.3755424E+01  3.3819459E-02
 1.3773952E+01  3.2923926E-02
 1.3792481E+01  3.1736009E-02
 1.3811010E+01  3.1710107E-02
 1.3829538E+01  3.2692544E-02
 1.3848067E+01  3.3009715E-02
 1.3866595E+01  3.4249313E-02
 1.3885124E+01  3.6250129E-02
 1.3903652E+01  3.6053021E-02
 1.3922181E+01  3.4943387E-02
 1.3940710E+01  3.5223711E-02
 1.3959238E+01  3.4081873E-02
 1.3977767E+01  3.2737296E-02
 1.3996295E+01  3.2740954E-02
 1.4014824E+01  3.2440748E-02
 1.4033352E+01  3.2386284E-02
 1.4051881E+01  3.3594601E-02
 1.4070410E+01  3.4844838E-02
 1.4088938E+01  3.4461338E-02
 1.4107467E+01  3.2014087E-02
 1.4125995E+01  3.0125219E-02
 1.4144524E+01  3.0463828E-02
 1.4163053E+01  3.1285759E-02
 1.4181581E+01  3.2662593E-02
 1.4200109E+01  3.4835141E-02
 1.4218637E+01  3.5839316E-02
 1.4237166E+01  3.5083089E-02
 1.4255694E+01  3.5180982E-02
 1.4274223E+01  3.4744110E-02
 1.4292752E+01  3.5104375E-02
 1.4311280E+01  3.4768030E-02
 1.4329809E+01  3.5063989E-02
 1.4348337E+01  3.4713753E-02
 1.4366866E+01  3.2741867E-02
 1.4385394E+01  3.2764357E-02
 1.4403923E+01  3.4603003E-02
 1.4422452E+01  3.5674505E-02
 1.4440980E+01  3.4832533E-02
 1.4459509E+01  3.2635655E-02
 1.4478037E+01  3.1625792E-02
 1.4496566E+01  3.2897756E-02
 1.4515095E+01  3.4275915E-02
 1.4533623E+01  3.4432426E-02
 1.4552152E+01  3.3275723E-02
 1.4570680E+01  3.3301327E-02
 1.4589209E+01  3.4034468E-02
 1.4607737E+01  3.3750694E-02
 1.4626266E+01  3.2895844E-02
 1.4644794E+01  3.2000247E-02
 1.4663322E+01  3.2519285E-02
 1.4681851E+01  3.4474898E-02
 1.4700379E+01  3.3425596E-02
 1.4718908E+01  3.2429151E-02
 1.4737436E+01  3.3334095E-02
 1.4755965E+01  3.4408618E-02
 1.4774494E+01  3.4315903E-02
 1.4793022E+01  3.2789804E-02
 1.4811551E+01  3.2387193E-02
 1.4830079E+01  3.1792063E-02
 1.4848608E+01  3.2153785E-02
 1.4867137E+01  3.2175209E-02
 1.4885665E+01  3.1016592E-02
 1.4904194E+01  3.0648043E-02
 1.4922722E+01  3.0383566E-02
 1.4941251E+01  2.9897135E-02
 1.4959779E+01  3.0723654E-02
 1.4978308E+01  3.1812306E-02
 1.4996837E+01  3.2126859E-02
 1.5015365E+01  3.2539837E-02
 1.5033894E+01  3.1662185E-02
 1.5052422E+01  3.1847384E-02
 1.5070951E+01  3.1665582E-02
 1.5089478E+01  2.9846130E-02
 1.5108007E+01  2.9174019E-02
 1.5126536E+01  2.9907707E-02
 1.5145064E+01  2.9697539E-02
 1.5163593E+01  3.0355448E-02
 1.5182121E+01  3.0074641E-02
 1.5200650E+01  2.9764546E-02
 1.5219179E+01  3.1193897E-02
 1.5237707E+01  3.1869113E-02
 1.5256236E+01  3.0605439E-02
 1.5274764E+01  2.9024942E-02
 1.5293293E+01  3.0363621E-02
 1.5311821E+01  3.0881109E-02
 1.5330350E+01  3.0115873E-02
 1.5348879E+01  3.0300846E-02
 1.5367407E+01  3.1821154E-02
 1.5385936E+01  3.1290181E-02
 1.5404464E+01  2.9404869E-02
 1.5422993E+01  2.8895155E-02
 1.5441521E+01  2.9677076E-02
 1.5460050E+01  3.0477926E-02
 1.5478579E+01  3.0130658E-02
 1.5497107E+01  3.1516917E-02
 1.5515635E+01  3.3388864E-02
 1.5534163E+01  3.2441225E-02
 1.5552692E+01  3.1999812E-02
 1.5571221E+01  3.2389618E-02
 1.5589749E+01  3.3007670E-02
 1.5608278E+01  3.3709764E-02
 1.5626806E+01  3.5454586E-02
 1.5645335E+01  3.5373248E-02
 1.5663863E+01  3.4102906E-02
 1.5682392E+01  3.3997390E-02
 1.5700921E+01  3.6210366E-02
 1.5719449E+01  4.0420536E-02
 1.5737978E+01  4.2026035E-02
 1.5756506E+01  4.3997861E-02
 1.5775035E+01  4.5948043E-02
 1.5793563E+01  4.8804753E-02
 1.5812092E+01  5.3195927E-02
 1.5830621E+01  5.8798838E-02
 1.5849149E+01  6.3925289E-02
 1.5867678E+01  6.8219982E-02
 1.5886206E+01  7.5887479E-02
 1.5904735E+01  8.4920004E-02
 1.5923264E+01  9.2449643E-02
 1.5941792E+01  1.0389716E-01
 1.5960320E+01  1.1643144E-01
 1.5978848E+01  1.2894495E-01
 1.5997377E+01  1.4535584E-01
 1.6015905E+01  1.5669996E-01
 1.6034433E+01  1.6709265E-01
 1.6052963E+01  1.7082372E-01
 1.6071491E+01  1.6430193E-01
 1.6090019E+01  1.5444162E-01
 1.6108549E+01  1.3394086E-01
 1.6127077E+01  1.0864705E-01
 1.6145605E+01  8.8655405E-02
 1.6164135E+01  7.1619213E-02
 1.6182663E+01  6.1126906E-02
 1.6201191E+01  5.2878808E-02
 1.6219719E+01  4.6999115E-02
 1.6238249E+01  4.2004678E-02
 1.6256777E+01  3.7761539E-02
 1.6275305E+01  3.6149114E-02
 1.6293835E+01  3.6996003E-02
 1.6312363E+01  3.7058748E-02
 1.6330891E+01  3.5155665E-02
 1.6349419E+01  3.3463668E-02
 1.6367949E+01  3.2915719E-02
 1.6386477E+01  3.2154426E-02
 1.6405005E+01  3.1296831E-02
 1.6423534E+01  3.1846292E-02
 1.6442062E+01  3.2717030E-02
 1.6460590E+01  3.2102492E-02
 1.6479118E+01  3.1647399E-02
 1.6497648E+01  3.2341477E-02
 1.6516176E+01  3.2109752E-02
 1.6534704E+01  3.2791123E-02
 1.6553234E+01  3.2126568E-02
 1.6571762E+01  3.0612851E-02
 1.6590290E+01  3.1224370E-02
 1.6608818E+01  3.1895407E-02
 1.6627348E+01  3.1919993E-02
 1.6645876E+01  3.0662596E-02
 1.6664404E+01  3.0295709E-02
 1.6682934E+01  3.0874528E-02
 1.6701462E+01  3.0627986E-02
 1.6719990E+01  3.0510142E-02
 1.6738518E+01  3.0127451E-02
 1.6757048E+01  3.0797651E-02
 1.6775576E+01  3.1404883E-02
 1.6794104E+01  3.1311892E-02
 1.6812634E+01  3.1893466E-02
 1.6831161E+01  3.2230858E-02
 1.6849689E+01  3.2053616E-02
 1.6868219E+01  3.2254770E-02
 1.6886747E+01  3.1606589E-02
 1.6905275E+01  3.1850688E-02
 1.6923803E+01  3.2566302E-02
 1.6942333E+01  3.2166321E-02
 1.6960861E+01  3.1783443E-02
 1.6979389E+01  3.1329945E-02
 1.6997919E+01  3.0325893E-02
 1.7016447E+01  3.0904647E-02
 1.7034975E+01  3.3061251E-02
 1.7053503E+01  3.5887364E-02
 1.7072033E+01  3.7518810E-02
 1.7090561E+01  3.7683617E-02
 1.7109089E+01  3.8761470E-02
 1.7127619E+01  4.1239344E-02
 1.7146147E+01  4.3842833E-02
 1.7164675E+01  4.8885841E-02
 1.7183203E+01  5.6707621E-02
 1.7201733E+01  6.4071462E-02
 1.7220261E+01  7.0521399E-02
 1.7238789E+01  7.3681757E-02
 1.7257318E+01  7.1071304E-02
 1.7275846E+01  6.8170816E-02
 1.7294374E+01  6.5039895E-02
 1.7312902E+01  6.3742116E-02
 1.7331432E+01  6.1523281E-02
 1.7349960E+01  5.9013061E-02
 1.7368488E+01  5.6772351E-02
 1.7387018E+01  5.2966360E-02
 1.7405546E+01  5.1433589E-02
 1.7424074E+01  4.7939453E-02
 1.7442602E+01  4.3499462E-02
 1.7461132E+01  4.1818436E-02
 1.7479660E+01  4.2047903E-02
 1.7498188E+01  3.9864097E-02
 1.7516718E+01  3.7922252E-02
 1.7535246E+01  3.7783153E-02
 1.7553774E+01  3.6456540E-02
 1.7572304E+01  3.4246329E-02
 1.7590832E+01  3.2671720E-02
 1.7609360E+01  3.1826921E-02
 1.7627888E+01  3.1281006E-02
 1.7646418E+01  3.1185709E-02
 1.7664946E+01  3.2441750E-02
 1.7683474E+01  3.3662606E-02
 1.7702003E+01  3.5382215E-02
 1.7720531E+01  3.5785079E-02
 1.7739059E+01  3.4614891E-02
 1.7757587E+01  3.5416357E-02
 1.7776117E+01  3.6227457E-02
 1.7794645E+01  3.6978576E-02
 1.7813173E+01  3.7067685E-02
 1.7831703E+01  3.6797281E-02
 1.7850231E+01  3.7769452E-02
 1.7868759E+01  4.0657435E-02
 1.7887287E+01  4.5928322E-02
 1.7905817E+01  5.0289623E-02
 1.7924345E+01  5.5709984E-02
 1.7942873E+01  6.3886039E-02
 1.7961403E+01  7.6442957E-02
 1.7979931E+01  9.8985679E-02
 1.7998459E+01  1.3639916E-01
 1.8016987E+01  1.9215919E-01
 1.8035517E+01  2.6454648E-01
 1.8054045E+01  3.5225880E-01
 1.8072573E+01  3.9035803E-01
 1.8091103E+01  3.9108786E-01
 1.8109631E+01  3.3707452E-01
 1.8128159E+01  2.7380687E-01
 1.8146687E+01  2.2645071E-01
 1.8165216E+01  2.0138502E-01
 1.8183744E+01  1.8761617E-01
 1.8202272E+01  1.7690353E-01
 1.8220802E+01  1.6880020E-01
 1.8239330E+01  1.5267929E-01
 1.8257858E+01  1.3788395E-01
 1.8276388E+01  1.2570707E-01
 1.8294916E+01  1.1131517E-01
 1.8313444E+01  1.0021679E-01
 1.8331972E+01  9.0755850E-02
 1.8350502E+01  8.4599242E-02
 1.8369030E+01  8.2387634E-02
 1.8387558E+01  8.4045060E-02
 1.8406088E+01  8.6626470E-02
 1.8424616E+01  9.1169439E-02
 1.8443144E+01  9.6571505E-02
 1.8461672E+01  1.0086789E-01
 1.8480202E+01  1.0208083E-01
 1.8498730E+01  9.9696711E-02
 1.8517258E+01  9.5165953E-02
 1.8535788E+01  9.0488844E-02
 1.8554316E+01  8.4331095E-02
 1.8572844E+01  7.8264982E-02
 1.8591372E+01  7.2481558E-02
 1.8609901E+01  6.5291815E-02
 1.8628429E+01  5.8449987E-02
 1.8646957E+01  5.1848415E-02
 1.8665487E+01  4.6958119E-02
 1.8684015E+01  4.4043418E-02
 1.8702543E+01  4.2007070E-02
 1.8721071E+01  4.0469348E-02
 1.8739601E+01  3.7884090E-02
 1.8758129E+01  3.5647899E-02
 1.8776657E+01  3.3191096E-02
 1.8795187E+01  3.0283017E-02
 1.8813715E+01  2.9577065E-02
 1.8832243E+01  3.0374654E-02
 1.8850771E+01  2.9176908E-02
 1.8869301E+01  2.6742373E-02
 1.8887829E+01  2.6815243E-02
 1.8906357E+01  2.7924791E-02
 1.8924887E+01  2.9186746E-02
 1.8943415E+01  2.9554367E-02
 1.8961943E+01  2.8363081E-02
 1.8980471E+01  2.7096745E-02
 1.8999001E+01  2.6870390E-02
 1.9017529E+01  2.6786583E-02
 1.9036057E+01  2.5802623E-02
 1.9054586E+01  2.5324358E-02
 1.9073114E+01  2.6136778E-02
 1.9091642E+01  2.5497815E-02
 1.9110172E+01  2.4909088E-02
 1.9128700E+01  2.4566248E-02
 1.9147228E+01  2.4884773E-02
 1.9165756E+01  2.6771391E-02
 1.9184286E+01  2.6880156E-02
 1.9202814E+01  2.6114063E-02
 1.9221342E+01  2.4676511E-02
 1.9239872E+01  2.3851911E-02
 1.9258400E+01  2.4089517E-02
 1.9276928E+01  2.4395121E-02
 1.9295456E+01  2.5153242E-02
 1.9313986E+01  2.5953840E-02
 1.9332514E+01  2.5510756E-02
 1.9351042E+01  2.4680248E-02
 1.9369572E+01  2.4841264E-02
 1.9388100E+01  2.4152990E-02
 1.9406628E+01  2.3334647E-02
 1.9425156E+01  2.2432627E-02
 1.9443686E+01  2.3094038E-02
 1.9462214E+01  2.4660856E-02
 1.9480742E+01  2.4529332E-02
 1.9499271E+01  2.3139043E-02
 1.9517799E+01  2.3154913E-02
 1.9536327E+01  2.3361048E-02
 1.9554855E+01  2.3670554E-02
 1.9573385E+01  2.4386924E-02
 1.9591913E+01  2.2219472E-02
 1.9610441E+01  1.9904029E-02
 1.9628971E+01  2.2266099E-02
 1.9647499E+01  2.4301983E-02
 1.9666027E+01  2.6122887E-02
 1.9684555E+01  2.5940327E-02
 1.9703085E+01  2.3104567E-02
 1.9721613E+01  2.3110867E-02
 1.9740141E+01  2.3968844E-02
 1.9758671E+01  2.4138350E-02
 1.9777199E+01  2.3634836E-02
 1.9795727E+01  2.3097718E-02
 1.9814257E+01  2.2001293E-02
 1.9832785E+01  2.2467379E-02
 1.9851313E+01  2.3494259E-02
 1.9869841E+01  2.4288356E-02
 1.9888371E+01  2.4368534E-02
 1.9906898E+01  2.4652595E-02
 1.9925426E+01  2.4591694E-02
 1.9943956E+01  2.3338478E-02
 1.9962484E+01  2.3134166E-02
 1.9981012E+01  2.2578044E-02
 1.9999540E+01  2.3556454E-02
 2.0018070E+01  2.4697158E-02
 2.0036598E+01  2.4388989E-02
 2.0055126E+01  2.4329949E-02
 2.0073656E+01  2.4166238E-02
 2.0092184E+01  2.4001000E-02
 2.0110712E+01  2.3745731E-02
 2.0129240E+01  2.4747238E-02
 2.0147770E+01  2.5868561E-02
 2.0166298E+01  2.3944872E-02
 2.0184826E+01  2.1775359E-02
 2.0203356E+01  2.1753103E-02
 2.0221884E+01  2.1598771E-02
 2.0240412E+01  2.1250850E-02
 2.0258940E+01  2.2265654E-02
 2.0277470E+01  2.3676056E-02
 2.0295998E+01  2.3167344E-02
 2.0314526E+01  2.2081345E-02
 2.0333055E+01  2.2271113E-02
 2.0351583E+01  2.2855446E-02
 2.0370111E+01  2.2222534E-02
 2.0388639E+01  2.2673519E-02
 2.0407169E+01  2.2729045E-02
 2.0425697E+01  2.2892000E-02
 2.0444225E+01  2.2394486E-02
 2.0462755E+01  2.2280268E-02
 2.0481283E+01  2.1735348E-02
 2.0499811E+01  2.1576101E-02
 2.0518341E+01  2.3546888E-02
 2.0536869E+01  2.4869477E-02
 2.0555397E+01  2.3851043E-02
 2.0573925E+01  2.2271890E-02
 2.0592455E+01  2.2122383E-02
 2.0610983E+01  2.3747718E-02
 2.0629511E+01  2.4225943E-02
 2.0648041E+01  2.1800181E-02
 2.0666569E+01  1.9695157E-02
 2.0685097E+01  2.1435639E-02
 2.0703625E+01  2.3174295E-02
 2.0722155E+01  2.2947492E-02
 2.0740683E+01  2.1495940E-02
 2.0759211E+01  2.0536408E-02
 2.0777740E+01  2.0944444E-02
 2.0796268E+01  2.2329349E-02
 2.0814796E+01  2.4232998E-02
 2.0833324E+01  2.5590377E-02
 2.0851854E+01  2.5327714E-02
 2.0870382E+01  2.3184078E-02
 2.0888910E+01  2.2290323E-02
 2.0907440E+01  2.3567313E-02
 2.0925968E+01  2.5520975E-02
 2.0944496E+01  2.5548700E-02
 2.0963024E+01  2.2705857E-02
 2.0981554E+01  2.2580270E-02
 2.1000082E+01  2.2018619E-02
 2.1018610E+01  2.1923881E-02
 2.1037140E+01  2.3151705E-02
 2.1055668E+01  2.3722047E-02
 2.1074196E+01  2.2384718E-02
 2.1092724E+01  2.1892741E-02
 2.1111254E+01  2.3307785E-02
 2.1129782E+01  2.4753377E-02
 2.1148310E+01  2.3082469E-02
 2.1166840E+01  2.2436112E-02
 2.1185368E+01  2.1776494E-02
 2.1203896E+01  2.2155600E-02
 2.1222425E+01  2.2712657E-02
 2.1240953E+01  2.3385752E-02
 2.1259481E+01  2.2565465E-02
 2.1278009E+01  2.1904062E-02
 2.1296539E+01  2.2822449E-02
 2.1315067E+01  2.2514004E-02
 2.1333595E+01  2.0984685E-02
 2.1352125E+01  2.0077644E-02
 2.1370653E+01  2.1573128E-02
 2.1389181E+01  2.3512546E-02
 2.1407709E+01  2.2309678E-02
 2.1426239E+01  2.1515297E-02
 2.1444767E+01  2.1257406E-02
 2.1463295E+01  2.2570787E-02
 2.1481825E+01  2.2797287E-02
 2.1500353E+01  2.1617595E-02
 2.1518881E+01  2.0448901E-02
 2.1537409E+01  1.9852441E-02
 2.1555939E+01  2.0642309E-02
 2.1574467E+01  2.1262523E-02
 2.1592995E+01  2.0030644E-02
 2.1611525E+01  2.0236583E-02
 2.1630053E+01  2.3414459E-02
 2.1648581E+01  2.3576951E-02
 2.1667109E+01  2.1617776E-02
 2.1685638E+01  2.1466967E-02
 2.1704166E+01  2.1906191E-02
 2.1722694E+01  2.2236556E-02
 2.1741224E+01  2.1543065E-02
 2.1759752E+01  2.1021508E-02
 2.1778280E+01  1.9809805E-02
 2.1796808E+01  1.7890489E-02
 2.1815338E+01  1.7618613E-02
 2.1833866E+01  1.8911183E-02
 2.1852394E+01  2.0694163E-02
 2.1870924E+01  2.1360062E-02
 2.1889452E+01  2.1668438E-02
 2.1907980E+01  2.0770667E-02
 2.1926510E+01  2.0327374E-02
 2.1945038E+01  1.8411985E-02
 2.1963566E+01  1.9074615E-02
 2.1982094E+01  2.0411344E-02
 2.2000624E+01  2.0225471E-02
 2.2019152E+01  2.1234123E-02
 2.2037680E+01  2.1146117E-02
 2.2056210E+01  2.0444162E-02
 2.2074738E+01  1.9669741E-02
 2.2093266E+01  2.0204840E-02
 2.2111794E+01  2.0728065E-02
 2.2130323E+01  2.0522114E-02
 2.2148851E+01  1.9838350E-02
 2.2167379E+01  1.9806255E-02
 2.2185909E+01  2.1137739E-02
 2.2204437E+01  2.1392731E-02
 2.2222965E+01  2.2164196E-02
 2.2241493E+01  2.1552511E-02
 2.2260023E+01  2.0588178E-02
 2.2278551E+01  2.0587530E-02
 2.2297079E+01  2.1019377E-02
 2.2315609E+01  2.1946574E-02
 2.2334137E+01  2.2827674E-02
 2.2352665E+01  2.1193258E-02
 2.2371193E+01  2.0476237E-02
 2.2389723E+01  2.0728132E-02
 2.2408251E+01  2.0278275E-02
 2.2426779E+01  2.1628002E-02
 2.2445309E+01  2.1984994E-02
 2.2463837E+01  1.9775480E-02
 2.2482365E+01  1.7815234E-02
 2.2500893E+01  1.8940521E-02
 2.2519423E+01  2.1095123E-02
 2.2537951E+01  2.2189470E-02
 2.2556479E+01  2.1344429E-02
 2.2575008E+01  1.8674210E-02
 2.2593536E+01  1.8328803E-02
 2.2612064E+01  1.9843619E-02
 2.2630594E+01  2.0551682E-02
 2.2649122E+01  1.9269273E-02
 2.2667650E+01  1.7884459E-02
 2.2686178E+01  1.9570259E-02
 2.2704708E+01  2.1775309E-02
 2.2723236E+01  2.1121057E-02
 2.2741764E+01  2.0608732E-02
 2.2760294E+01  1.9284006E-02
 2.2778822E+01  1.7643409E-02
 2.2797350E+01  1.7171089E-02
 2.2815878E+01  1.8211138E-02
 2.2834408E+01  1.8213399E-02
 2.2852936E+01  2.0152690E-02
 2.2871464E+01  2.1831511E-02
 2.2889994E+01  2.1974536E-02
 2.2908522E+01  2.1369226E-02
 2.2927050E+01  2.2062685E-02
 2.2945578E+01  2.2590529E-02
 2.2964108E+01  2.2316145E-02
 2.2982635E+01  2.1674877E-02
 2.3001163E+01  2.0842073E-02
 2.3019693E+01  2.0200817E-02
 2.3038221E+01  2.1383842E-02
 2.3056749E+01  2.2242621E-02
 2.3075277E+01  2.2616496E-02
 2.3093807E+01  2.2602396E-02
 2.3112335E+01  2.2787541E-02
 2.3130863E+01  2.2927631E-02
 2.3149393E+01  2.1951808E-02
 2.3167921E+01  2.2030178E-02
 2.3186449E+01  2.3315910E-02
 2.3204977E+01  2.6218655E-02
 2.3223507E+01  2.5613720E-02
 2.3242035E+01  2.5480200E-02
 2.3260563E+01  2.6689976E-02
 2.3279093E+01  2.7686702E-02
 2.3297621E+01  3.1208167E-02
 2.3316149E+01  3.3897292E-02
 2.3334677E+01  3.7425175E-02
 2.3353207E+01  4.4293590E-02
 2.3371735E+01  5.4185297E-02
 2.3390263E+01  6.8604641E-02
 2.3408792E+01  8.9653470E-02
 2.3427320E+01  1.1863986E-01
 2.3445848E+01  1.4930639E-01
 2.3464378E+01  1.7967474E-01
 2.3482906E+01  2.0822312E-01
 2.3501434E+01  2.3576422E-01
 2.3519962E+01  2.5245166E-01
 2.3538492E+01  2.5482479E-01
 2.3557020E+01  2.4706207E-01
 2.3575548E+01  2.4229966E-01
 2.3594078E+01  2.4244042E-01
 2.3612606E+01  2.3860705E-01
 2.3631134E+01  2.2129418E-01
 2.3649662E+01  1.9609766E-01
 2.3668192E+01  1.6676363E-01
 2.3686720E+01  1.3977051E-01
 2.3705248E+01  1.1583208E-01
 2.3723778E+01  9.5301725E-02
 2.3742306E+01  7.9701692E-02
 2.3760834E+01  6.6931866E-02
 2.3779362E+01  5.6536138E-02
 2.3797892E+01  4.7407787E-02
 2.3816420E+01  4.1193351E-02
 2.3834948E+01  3.6903296E-02
 2.3853477E+01  3.3542953E-02
 2.3872005E+01  3.0352909E-02
 2.3890533E+01  2.7928503E-02
 2.3909061E+01  2.5795802E-02
 2.3927591E+01  2.4605848E-02
 2.3946119E+01  2.4027929E-02
 2.3964647E+01  2.3013348E-02
 2.3983177E+01  2.2598611E-02
 2.4001705E+01  2.2083629E-02
 2.4020233E+01  2.0035999E-02
 2.4038761E+01  2.0425139E-02
 2.4057291E+01  2.2194300E-02
 2.4075819E+01  2.1249525E-02
 2.4094347E+01  1.9457063E-02
 2.4112877E+01  2.0714996E-02
 2.4131405E+01  2.1257902E-02
 2.4149933E+01  2.0490246E-02
 2.4168463E+01  1.9051528E-02
 2.4186991E+01  1.7951328E-02
 2.4205519E+01  1.7584478E-02
 2.4224047E+01  1.7148064E-02
 2.4242577E+01  1.7537782E-02
 2.4261105E+01  1.9493679E-02
 2.4279633E+01  2.0421457E-02
 2.4298162E+01  2.0269802E-02
 2.4316690E+01  1.8724216E-02
 2.4335218E+01  1.9054726E-02
 2.4353746E+01  1.9638862E-02
 2.4372276E+01  1.9384937E-02
 2.4390804E+01  1.9230694E-02
 2.4409332E+01  1.9058613E-02
 2.4427862E+01  1.8118715E-02
 2.4446390E+01  1.7842162E-02
 2.4464918E+01  1.8340707E-02
 2.4483446E+01  1.8585287E-02
 2.4501976E+01  1.7545778E-02
 2.4520504E+01  1.9140324E-02
 2.4539032E+01  1.9983366E-02
 2.4557562E+01  1.9605903E-02
 2.4576090E+01  1.8761752E-02
 2.4594618E+01  1.8707298E-02
 2.4613146E+01  2.0993542E-02
 2.4631676E+01  2.1731721E-02
 2.4650204E+01  2.0840131E-02
 2.4668732E+01  1.9232819E-02
 2.4687262E+01  1.8523345E-02
 2.4705790E+01  1.8379923E-02
 2.4724318E+01  1.7489448E-02
 2.4742846E+01  1.6323509E-02
 2.4761375E+01  1.6896140E-02
 2.4779903E+01  1.7688258E-02
 2.4798431E+01  1.7160390E-02
 2.4816961E+01  1.7899135E-02
 2.4835489E+01  1.9153824E-02
 2.4854017E+01  1.8953050E-02
 2.4872547E+01  1.9196462E-02
 2.4891075E+01  1.9437838E-02
 2.4909603E+01  1.7901134E-02
 2.4928131E+01  1.7336236E-02
 2.4946661E+01  1.7382959E-02
 2.4965189E+01  1.7903937E-02
 2.4983717E+01  1.7165029E-02
 2.5002247E+01  1.7406849E-02
 2.5020775E+01  1.8587830E-02
 2.5039303E+01  1.9068580E-02
 2.5057831E+01  1.8699363E-02
 2.5076361E+01  1.8403757E-02
 2.5094889E+01  1.8500092E-02
 2.5113417E+01  1.9350640E-02
 2.5131947E+01  2.0759547E-02
 2.5150475E+01  2.0796942E-02
 2.5169003E+01  2.0861110E-02
 2.5187531E+01  2.0661773E-02
 2.5206060E+01  1.9436700E-02
 2.5224588E+01  1.9710483E-02
 2.5243116E+01  2.1012308E-02
 2.5261646E+01  1.9501748E-02
 2.5280174E+01  1.7801953E-02
 2.5298702E+01  1.7887771E-02
 2.5317230E+01  1.9791996E-02
 2.5335760E+01  1.9661929E-02
 2.5354288E+01  1.8366128E-02
 2.5372816E+01  1.7494483E-02
 2.5391346E+01  1.7618466E-02
 2.5409874E+01  1.8807864E-02
 2.5428402E+01  1.8555915E-02
 2.5446930E+01  1.7723870E-02
 2.5465460E+01  1.8042240E-02
 2.5483988E+01  1.8655546E-02
 2.5502516E+01  1.8929284E-02
 2.5521046E+01  1.9356495E-02
 2.5539574E+01  1.9534430E-02
 2.5558102E+01  2.0509711E-02
 2.5576632E+01  1.8115137E-02
 2.5595160E+01  1.6965566E-02
 2.5613688E+01  1.8468747E-02
 2.5632215E+01  1.8708793E-02
 2.5650745E+01  1.9062748E-02
 2.5669273E+01  2.1213301E-02
 2.5687801E+01  2.1817571E-02
 2.5706331E+01  2.0709598E-02
 2.5724859E+01  1.9720126E-02
 2.5743387E+01  1.9242890E-02
 2.5761915E+01  1.9055810E-02
 2.5780445E+01  1.9614562E-02
 2.5798973E+01  2.0231277E-02
 2.5817501E+01  2.0249508E-02
 2.5836031E+01  1.9203437E-02
 2.5854559E+01  1.9588213E-02
 2.5873087E+01  2.0842390E-02
 2.5891615E+01  2.0935349E-02
 2.5910145E+01  2.0832110E-02
 2.5928673E+01  2.1785490E-02
 2.5947201E+01  2.1759914E-02
 2.5965731E+01  2.3072131E-02
 2.5984259E+01  2.5736813E-02
 2.6002787E+01  2.7692586E-02
 2.6021315E+01  2.8737051E-02
 2.6039845E+01  2.8701883E-02
 2.6058372E+01  2.8489368E-02
 2.6076900E+01  2.9617840E-02
 2.6095430E+01  3.2510869E-02
 2.6113958E+01  3.3572014E-02
 2.6132486E+01  3.4889732E-02
 2.6151014E+01  3.8099848E-02
 2.6169544E+01  4.1309759E-02
 2.6188072E+01  4.4535421E-02
 2.6206600E+01  4.7846820E-02
 2.6225130E+01  4.8216633E-02
 2.6243658E+01  4.7430806E-02
 2.6262186E+01  4.6768446E-02
 2.6280716E+01  4.6183780E-02
 2.6299244E+01  4.3902893E-02
 2.6317772E+01  4.0996313E-02
 2.6336300E+01  3.9553043E-02
 2.6354830E+01  3.6774606E-02
 2.6373358E+01  3.3973049E-02
 2.6391886E+01  3.2726273E-02
 2.6410416E+01  3.1883430E-02
 2.6428944E+01  3.0274875E-02
 2.6447472E+01  3.0738927E-02
 2.6466000E+01  2.9042926E-02
 2.6484529E+01  2.6923211E-02
 2.6503057E+01  2.4239752E-02
 2.6521585E+01  2.3282062E-02
 2.6540115E+01  2.4256794E-02
 2.6558643E+01  2.4846589E-02
 2.6577171E+01  2.3787595E-02
 2.6595699E+01  2.2750797E-02
 2.6614229E+01  2.1227889E-02
 2.6632757E+01  2.0426087E-02
 2.6651285E+01  1.9797610E-02
 2.6669815E+01  1.8887734E-02
 2.6688343E+01  1.9066537E-02
 2.6706871E+01  1.8548112E-02
 2.6725399E+01  1.8918868E-02
 2.6743929E+01  1.8887063E-02
 2.6762457E+01  1.8259291E-02
 2.6780985E+01  1.7950410E-02
 2.6799515E+01  1.7899660E-02
 2.6818043E+01  1.8409420E-02
 2.6836571E+01  1.7750770E-02
 2.6855099E+01  1.7764166E-02
 2.6873629E+01  1.7336989E-02
 2.6892157E+01  1.6442336E-02
 2.6910685E+01  1.6567403E-02
 2.6929214E+01  1.7861623E-02
 2.6947742E+01  1.6063699E-02
 2.6966270E+01  1.5951948E-02
 2.6984798E+01  1.7009431E-02
 2.7003328E+01  1.6595144E-02
 2.7021856E+01  1.8299481E-02
 2.7040384E+01  1.8492132E-02
 2.7058914E+01  1.6926663E-02
 2.7077442E+01  1.6947720E-02
 2.7095970E+01  1.8855557E-02
 2.7114500E+01  1.9180041E-02
 2.7133028E+01  2.0148013E-02
 2.7151556E+01  2.0883111E-02
 2.7170084E+01  2.0140629E-02
 2.7188614E+01  1.8374858E-02
 2.7207142E+01  1.7069910E-02
 2.7225670E+01  1.8188899E-02
 2.7244200E+01  1.8272690E-02
 2.7262728E+01  1.8368624E-02
 2.7281256E+01  1.7963551E-02
 2.7299784E+01  1.8572668E-02
 2.7318314E+01  1.7751027E-02
 2.7336842E+01  1.7657401E-02
 2.7355370E+01  1.7948736E-02
 2.7373899E+01  1.8223057E-02
 2.7392427E+01  1.8320475E-02
 2.7410955E+01  1.9540714E-02
 2.7429483E+01  2.0276424E-02
 2.7448013E+01  2.0641552E-02
 2.7466541E+01  2.2175416E-02
 2.7485069E+01  2.2588050E-02
 2.7503599E+01  2.2757350E-02
 2.7522127E+01  2.5052451E-02
 2.7540655E+01  2.6009874E-02
 2.7559183E+01  2.8637258E-02
 2.7577713E+01  3.3352308E-02
 2.7596241E+01  3.6784261E-02
 2.7614769E+01  3.9429650E-02
 2.7633299E+01  4.2221092E-02
 2.7651827E+01  4.5284241E-02
 2.7670355E+01  4.9067941E-02
 2.7688883E+01  4.9427371E-02
 2.7707413E+01  4.7897652E-02
 2.7725941E+01  4.8689812E-02
 2.7744469E+01  4.9841132E-02
 2.7762999E+01  5.1588684E-02
 2.7781527E+01  5.5773955E-02
 2.7800055E+01  5.9574321E-02
 2.7818584E+01  6.4699687E-02
 2.7837112E+01  6.8270646E-02
 2.7855640E+01  6.9021754E-02
 2.7874168E+01  6.6818044E-02
 2.7892698E+01  5.9266105E-02
 2.7911226E+01  5.0655838E-02
 2.7929754E+01  4.4385076E-02
 2.7948284E+01  3.8537983E-02
 2.7966812E+01  3.4557596E-02
 2.7985340E+01  3.1706449E-02
 2.8003868E+01  2.9645413E-02
 2.8022398E+01  2.8136428E-02
 2.8040926E+01  2.5419259E-02
 2.8059454E+01  2.2745345E-02
 2.8077984E+01  2.2380939E-02
 2.8096512E+01  2.1908350E-02
 2.8115040E+01  2.0198353E-02
 2.8133568E+01  1.7970815E-02
 2.8152098E+01  1.7028380E-02
 2.8170626E+01  1.6852127E-02
 2.8189154E+01  1.6835598E-02
 2.8207684E+01  1.7982386E-02
 2.8226212E+01  1.7910939E-02
 2.8244740E+01  1.5629871E-02
 2.8263268E+01  1.5124939E-02
 2.8281797E+01  1.6187532E-02
 2.8300325E+01  1.6317038E-02
 2.8318853E+01  1.6776279E-02
 2.8337383E+01  1.6744746E-02
 2.8355911E+01  1.5206438E-02
 2.8374439E+01  1.5540167E-02
 2.8392967E+01  1.5527405E-02
 2.8411497E+01  1.5326377E-02
 2.8430025E+01  1.5396644E-02
 2.8448553E+01  1.7454727E-02
 2.8467083E+01  1.7023450E-02
 2.8485611E+01  1.6600672E-02
 2.8504139E+01  1.6113928E-02
 2.8522669E+01  1.6796175E-02
 2.8541197E+01  1.7774412E-02
 2.8559725E+01  1.6575573E-02
 2.8578253E+01  1.5244494E-02
 2.8596783E+01  1.4721029E-02
 2.8615311E+01  1.4213896E-02
 2.8633839E+01  1.4742391E-02
 2.8652369E+01  1.5541059E-02
 2.8670897E+01  1.5280833E-02
 2.8689425E+01  1.5876090E-02
 2.8707952E+01  1.6218508E-02
 2.8726482E+01  1.6684333E-02
 2.8745010E+01  1.5635606E-02
 2.8763538E+01  1.4032392E-02
 2.8782068E+01  1.3473849E-02
 2.8800596E+01  1.3922915E-02
 2.8819124E+01  1.4726475E-02
 2.8837652E+01  1.5279853E-02
 2.8856182E+01  1.5874464E-02
 2.8874710E+01  1.5314179E-02
 2.8893238E+01  1.3365095E-02
 2.8911768E+01  1.3224020E-02
 2.8930296E+01  1.3031946E-02
 2.8948824E+01  1.4658464E-02
 2.8967352E+01  1.4116079E-02
 2.8985882E+01  1.3821292E-02
 2.9004410E+01  1.4680523E-02
 2.9022938E+01  1.2304828E-02
 2.9041468E+01  1.1149152E-02
 2.9059996E+01  1.2381292E-02
 2.9078524E+01  1.4775379E-02
 2.9097052E+01  1.4728935E-02
 2.9115582E+01  1.3326912E-02
 2.9134109E+01  1.4586302E-02
 2.9152637E+01  1.3516174E-02
 2.9171167E+01  1.2908258E-02
 2.9189695E+01  1.3629677E-02
 2.9208223E+01  1.4703346E-02
 2.9226753E+01  1.4693930E-02
 2.9245281E+01  1.2956807E-02
 2.9263809E+01  1.2984036E-02
 2.9282337E+01  1.5028036E-02
 2.9300867E+01  1.4218322E-02
 2.9319395E+01  1.3006992E-02
 2.9337923E+01  1.3523018E-02
 2.9356453E+01  1.4661149E-02
 2.9374981E+01  1.5468719E-02
 2.9393509E+01  1.5158362E-02
 2.9412037E+01  1.5157316E-02
 2.9430567E+01  1.6640805E-02
 2.9449095E+01  1.4042195E-02
 2.9467623E+01  1.3138276E-02
 2.9486153E+01  1.3407573E-02
 2.9504681E+01  1.4605485E-02
 2.9523209E+01  1.4437445E-02
 2.9541737E+01  1.4184447E-02
 2.9560266E+01  1.4258147E-02
 2.9578794E+01  1.4792765E-02
 2.9597322E+01  1.4871420E-02
 2.9615852E+01  1.4416047E-02
 2.9634380E+01  1.5889084E-02
 2.9652908E+01  1.6509531E-02
 2.9671436E+01  1.7752459E-02
 2.9689966E+01  1.5734991E-02
 2.9708494E+01  1.3847805E-02
 2.9727022E+01  1.4321419E-02
 2.9745552E+01  1.4776060E-02
 2.9764080E+01  1.6091112E-02
 2.9782608E+01  1.5940299E-02
 2.9801136E+01  1.6210927E-02
 2.9819666E+01  1.5644697E-02
 2.9838194E+01  1.5408074E-02
 2.9856722E+01  1.5751693E-02
 2.9875252E+01  1.4960462E-02
 2.9893780E+01  1.3387719E-02
 2.9912308E+01  1.3279814E-02
 2.9930838E+01  1.5133116E-02
 2.9949366E+01  1.5261655E-02
 2.9967894E+01  1.4397613E-02
 2.9986422E+01  1.3123589E-02
 3.0004951E+01  1.3552709E-02
 3.0023479E+01  1.4312146E-02
 3.0042007E+01  1.6164789E-02
 3.0060537E+01  1.6028401E-02
 3.0079065E+01  1.5361421E-02
 3.0097593E+01  1.5517867E-02
 3.0116121E+01  1.5774228E-02
 3.0134651E+01  1.7330546E-02
 3.0153179E+01  1.7096832E-02
 3.0171707E+01  1.6074279E-02
 3.0190237E+01  1.5459184E-02
 3.0208765E+01  1.3896213E-02
 3.0227293E+01  1.4793984E-02
 3.0245821E+01  1.6499428E-02
 3.0264351E+01  1.5451382E-02
 3.0282879E+01  1.6776321E-02
 3.0301407E+01  1.8316109E-02
 3.0319937E+01  1.9013593E-02
 3.0338465E+01  1.8039254E-02
 3.0356993E+01  2.0441275E-02
 3.0375521E+01  2.2497676E-02
 3.0394051E+01  2.2473734E-02
 3.0412579E+01  2.0430965E-02
 3.0431107E+01  2.1843718E-02
 3.0449636E+01  2.1901080E-02
 3.0468164E+01  2.0032637E-02
 3.0486692E+01  2.1131558E-02
 3.0505220E+01  2.3215277E-02
 3.0523750E+01  2.2848628E-02
 3.0542278E+01  2.0805042E-02
 3.0560806E+01  2.0959392E-02
 3.0579336E+01  2.2385934E-02
 3.0597864E+01  2.6794352E-02
 3.0616392E+01  2.6952321E-02
 3.0634922E+01  2.7337335E-02
 3.0653450E+01  2.7948009E-02
 3.0671978E+01  2.9128846E-02
 3.0690506E+01  3.0262655E-02
 3.0709036E+01  3.1471513E-02
 3.0727564E+01  3.2020878E-02
 3.0746092E+01  3.3381850E-02
 3.0764622E+01  3.6488939E-02
 3.0783150E+01  4.1012969E-02
 3.0801678E+01  4.3512918E-02
 3.0820206E+01  4.1840065E-02
 3.0838736E+01  4.1673191E-02
 3.0857264E+01  4.1587919E-02
 3.0875792E+01  4.4570372E-02
 3.0894321E+01  4.7690552E-02
 3.0912849E+01  4.9364910E-02
 3.0931377E+01  4.9013019E-02
 3.0949905E+01  4.6741460E-02
 3.0968435E+01  4.6306878E-02
 3.0986963E+01  4.3530848E-02
 3.1005491E+01  4.2733453E-02
 3.1024021E+01  4.1925959E-02
 3.1042549E+01  3.7270185E-02
 3.1061077E+01  3.3929195E-02
 3.1079605E+01  3.2030363E-02
 3.1098135E+01  3.2009967E-02
 3.1116663E+01  2.9975036E-02
 3.1135191E+01  2.7714163E-02
 3.1153721E+01  2.5242636E-02
 3.1172249E+01  2.4090298E-02
 3.1190777E+01  2.3849402E-02
 3.1209305E+01  2.2910845E-02
 3.1227835E+01  2.2110183E-02
 3.1246363E+01  2.1092944E-02
 3.1264891E+01  2.0872425E-02
 3.1283421E+01  2.1872282E-02
 3.1301949E+01  2.1522108E-02
 3.1320477E+01  2.0651313E-02
 3.1339005E+01  1.9764500E-02
 3.1357534E+01  1.6945081E-02
 3.1376062E+01  1.7841849E-02
 3.1394590E+01  1.8382933E-02
 3.1413120E+01  1.8592400E-02
 3.1431648E+01  1.7950077E-02
 3.1450176E+01  1.6212784E-02
 3.1468706E+01  1.6051229E-02
 3.1487234E+01  1.4576712E-02
 3.1505762E+01  1.4482022E-02
 3.1524290E+01  1.5906649E-02
 3.1542820E+01  1.5310132E-02
 3.1561348E+01  1.5606398E-02
 3.1579876E+01  1.4787850E-02
 3.1598406E+01  1.5029470E-02
 3.1616934E+01  1.6116120E-02
 3.1635462E+01  1.5858328E-02
 3.1653990E+01  1.7213836E-02
 3.1672520E+01  1.5905730E-02
 3.1691048E+01  1.3710846E-02
 3.1709576E+01  1.2214713E-02
 3.1728106E+01  1.3458253E-02
 3.1746634E+01  1.4160808E-02
 3.1765162E+01  1.4898675E-02
 3.1783689E+01  1.5876217E-02
 3.1802219E+01  1.7292758E-02
 3.1820747E+01  1.7545998E-02
 3.1839275E+01  1.5890529E-02
 3.1857805E+01  1.3655377E-02
 3.1876333E+01  1.4030349E-02
 3.1894861E+01  1.4409506E-02
 3.1913389E+01  1.4756999E-02
 3.1931919E+01  1.4857576E-02
 3.1950447E+01  1.7739849E-02
 3.1968975E+01  1.6439270E-02
 3.1987505E+01  1.7055841E-02
 3.2006031E+01  1.8030180E-02
 3.2024563E+01  1.8527392E-02
 3.2043091E+01  1.9217269E-02
 3.2061619E+01  2.0338774E-02
 3.2080147E+01  2.4556348E-02
 3.2098675E+01  2.6615966E-02
 3.2117203E+01  2.8288508E-02
 3.2135731E+01  3.1703010E-02
 3.2154263E+01  3.3849165E-02
 3.2172791E+01  3.6118641E-02
 3.2191319E+01  3.9130125E-02
 3.2209846E+01  4.1060828E-02
 3.2228374E+01  4.3424819E-02
 3.2246902E+01  4.5571938E-02
 3.2265430E+01  4.6566997E-02
 3.2283962E+01  4.7161475E-02
 3.2302490E+01  5.0599821E-02
 3.2321018E+01  5.4141719E-02
 3.2339546E+01  5.5462476E-02
 3.2358074E+01  5.5163216E-02
 3.2376602E+01  5.2345559E-02
 3.2395130E+01  4.5935344E-02
 3.2413662E+01  3.9949909E-02
 3.2432190E+01  3.3048477E-02
 3.2450718E+01  2.8465161E-02
 3.2469246E+01  2.5209140E-02
 3.2487774E+01  2.2824163E-02
 3.2506302E+01  2.1645613E-02
 3.2524834E+01  1.7752370E-02
 3.2543362E+01  1.8135475E-02
 3.2561890E+01  1.9681923E-02
 3.2580418E+01  2.1058451E-02
 3.2598946E+01  2.0395828E-02
 3.2617474E+01  1.9871781E-02
 3.2636002E+01  1.8306231E-02
 3.2654533E+01  1.6522186E-02
 3.2673061E+01  1.6734576E-02
 3.2691589E+01  1.8756144E-02
 3.2710117E+01  1.7263822E-02
 3.2728645E+01  1.6765885E-02
 3.2747173E+01  1.9322410E-02
 3.2765701E+01  1.9104138E-02
 3.2784233E+01  1.9831544E-02
 3.2802761E+01  1.9815557E-02
 3.2821289E+01  2.0493191E-02
 3.2839817E+01  2.1848695E-02
 3.2858345E+01  2.2881037E-02
 3.2876873E+01  2.4047595E-02
 3.2895401E+01  2.4671108E-02
 3.2913933E+01  2.6463915E-02
 3.2932461E+01  2.8005309E-02
 3.2950989E+01  2.9554078E-02
 3.2969517E+01  3.0099165E-02
 3.2988045E+01  3.2200862E-02
 3.3006573E+01  3.2562166E-02
 3.3025101E+01  3.3318937E-02
 3.3043633E+01  3.4764208E-02
 3.3062160E+01  3.7426606E-02
 3.3080688E+01  4.1873790E-02
 3.3099216E+01  4.4667039E-02
 3.3117744E+01  4.5427203E-02
 3.3136272E+01  4.5171633E-02
 3.3154800E+01  4.4618551E-02
 3.3173332E+01  4.4116393E-02
 3.3191860E+01  4.6958733E-02
 3.3210388E+01  5.0540760E-02
 3.3228916E+01  5.0312873E-02
 3.3247444E+01  4.6410896E-02
 3.3265972E+01  4.8244469E-02
 3.3284500E+01  5.7660185E-02
 3.3303032E+01  6.6638499E-02
 3.3321560E+01  6.8214588E-02
 3.3340088E+01  6.8446726E-02
 3.3358616E+01  6.6255473E-02
 3.3377144E+01  6.3987650E-02
 3.3395672E+01  6.0353309E-02
 3.3414200E+01  5.5950288E-02
 3.3432732E+01  5.1840488E-02
 3.3451260E+01  4.9817171E-02
 3.3469788E+01  4.7756951E-02
 3.3488316E+01  4.5148503E-02
 3.3506844E+01  4.0451713E-02
 3.3525372E+01  3.6176600E-02
 3.3543900E+01  2.8084399E-02
 3.3562431E+01  2.4902953E-02
 3.3580959E+01  2.3079703E-02
 3.3599487E+01  2.1517407E-02
 3.3618015E+01  1.9085078E-02
 3.3636543E+01  1.7895969E-02
 3.3655071E+01  1.7987974E-02
 3.3673599E+01  1.6991885E-02
 3.3692131E+01  1.4138322E-02
 3.3710659E+01  1.4750001E-02
 3.3729187E+01  1.3859587E-02
 3.3747715E+01  1.4639926E-02
 3.3766243E+01  1.5582807E-02
 3.3784771E+01  1.4370794E-02
 3.3803299E+01  1.4446401E-02
 3.3821831E+01  1.2749656E-02
 3.3840359E+01  9.7909095E-03
 3.3858887E+01  1.0637194E-02
 3.3877415E+01  1.2089234E-02
 3.3895943E+01  1.2026951E-02
 3.3914471E+01  9.8186545E-03
 3.3933002E+01  1.2523634E-02
 3.3951530E+01  1.2352505E-02
 3.3970058E+01  1.1058806E-02
 3.3988586E+01  1.1875462E-02
 3.4007114E+01  1.2069326E-02
 3.4025642E+01  1.1879981E-02
 3.4044170E+01  1.2729332E-02
 3.4062702E+01  1.4704085E-02
 3.4081230E+01  1.4701575E-02
 3.4099758E+01  1.1557159E-02
 3.4118286E+01  1.1331677E-02
 3.4136814E+01  1.2186530E-02
 3.4155342E+01  1.4815518E-02
 3.4173870E+01  1.2598391E-02
 3.4192402E+01  9.6999006E-03
 3.4210930E+01  1.2153249E-02
 3.4229458E+01  1.3055072E-02
 3.4247986E+01  1.4444232E-02
 3.4266514E+01  1.3319244E-02
 3.4285042E+01  1.1664032E-02
 3.4303570E+01  1.2617799E-02
 3.4322102E+01  1.2607068E-02
 3.4340630E+01  1.1925135E-02
 3.4359158E+01  1.4428895E-02
 3.4377686E+01  1.4366892E-02
 3.4396214E+01  1.2721090E-02
 3.4414742E+01  1.0598673E-02
 3.4433270E+01  1.2782554E-02
 3.4451801E+01  1.1840972E-02
 3.4470329E+01  8.4643401E-03
 3.4488857E+01  1.2551429E-02
 3.4507385E+01  1.4147100E-02
 3.4525913E+01  1.3824709E-02
 3.4544441E+01  1.0968734E-02
 3.4562969E+01  1.0915780E-02
 3.4581501E+01  9.8835826E-03
 3.4600029E+01  1.0385422E-02
 3.4618557E+01  1.1774455E-02
 3.4637085E+01  1.4538061E-02
 3.4655613E+01  1.4844540E-02
 3.4674141E+01  1.1690108E-02
 3.4692669E+01  8.9380834E-03
 3.4711201E+01  7.5197220E-03
 3.4729729E+01  9.4002392E-03
 3.4748257E+01  1.3542784E-02
 3.4766785E+01  1.5383022E-02
 3.4785313E+01  1.4864127E-02
 3.4803841E+01  1.3122688E-02
 3.4822369E+01  1.2985507E-02
 3.4840900E+01  1.1877841E-02
 3.4859428E+01  1.0743948E-02
 3.4877956E+01  1.1890176E-02
 3.4896484E+01  1.3955428E-02
 3.4915012E+01  1.4672767E-02
 3.4933540E+01  1.6944923E-02
 3.4952068E+01  1.6602140E-02
 3.4970600E+01  1.4219304E-02
 3.4989128E+01  1.3018589E-02
 3.5007656E+01  1.2521966E-02
 3.5026184E+01  1.1910149E-02
 3.5044712E+01  1.1841916E-02
 3.5063240E+01  1.0904273E-02
 3.5081768E+01  8.0959508E-03
 3.5100300E+01  9.5806671E-03
 3.5118828E+01  9.8432954E-03
 3.5137356E+01  8.7793022E-03
 3.5155884E+01  8.6880326E-03
 3.5174412E+01  1.0205525E-02
 3.5192940E+01  1.3581411E-02
 3.5211468E+01  1.6365705E-02
 3.5230000E+01  1.5526632E-02
 3.5248528E+01  1.6166300E-02
 3.5267056E+01  1.2351856E-02
 3.5285583E+01  9.5558614E-03
 3.5304111E+01  6.9435262E-03
 3.5322639E+01  9.7314697E-03
 3.5341171E+01  1.1250460E-02
 3.5359699E+01  1.0582916E-02
 3.5378227E+01  1.0306091E-02
 3.5396755E+01  1.3325304E-02
 3.5415283E+01  1.1833443E-02
 3.5433811E+01  8.5634198E-03
 3.5452339E+01  1.0763616E-02
 3.5470871E+01  1.2911044E-02
 3.5489399E+01  1.0261382E-02
 3.5507927E+01  8.1348950E-03
 3.5526455E+01  7.3665818E-03
 3.5544983E+01  1.0832038E-02
 3.5563511E+01  1.4111850E-02
 3.5582039E+01  1.4607950E-02
 3.5600571E+01  1.1997334E-02
 3.5619099E+01  8.8840127E-03
 3.5637627E+01  9.6488120E-03
 3.5656155E+01  1.2280600E-02
 3.5674683E+01  1.0476960E-02
 3.5693211E+01  7.4632932E-03
 3.5711739E+01  4.1144323E-03
 3.5730270E+01  7.1431277E-03
 3.5748798E+01  9.3360115E-03
 3.5767326E+01  1.2303676E-02
 3.5785854E+01  1.2503630E-02
 3.5804382E+01  8.4131435E-03
 3.5822910E+01  8.1300437E-03
 3.5841438E+01  1.1352417E-02
 3.5859970E+01  7.5578825E-03
 3.5878498E+01  7.4696196E-03
 3.5897026E+01  1.1679743E-02
 3.5915554E+01  1.1785081E-02
 3.5934082E+01  8.6221974E-03
 3.5952610E+01  7.4378033E-03
 3.5971138E+01  9.0164598E-03
 3.5989670E+01  1.2344948E-02
 3.6008198E+01  1.3677620E-02
 3.6026726E+01  1.2283871E-02
 3.6045254E+01  1.1379064E-02
 3.6063782E+01  1.1151169E-02
 3.6082310E+01  1.3829882E-02
 3.6100838E+01  1.3477736E-02
 3.6119370E+01  1.2179052E-02
 3.6137897E+01  1.0732834E-02
 3.6156425E+01  1.2508422E-02
 3.6174953E+01  1.5487845E-02
 3.6193481E+01  1.4125578E-02
 3.6212009E+01  1.1013015E-02
 3.6230537E+01  9.3677389E-03
 3.6249069E+01  1.4752352E-02
 3.6267597E+01  1.4743794E-02
 3.6286125E+01  1.0953750E-02
 3.6304653E+01  9.6061546E-03
 3.6323181E+01  1.0369415E-02
 3.6341709E+01  1.0769736E-02
 3.6360237E+01  9.3466872E-03
 3.6378769E+01  1.2505165E-02
 3.6397297E+01  9.0049347E-03
 3.6415825E+01  6.4979377E-03
 3.6434353E+01  9.4169714E-03
 3.6452881E+01  6.7085987E-03
 3.6471409E+01  5.4935436E-03
 3.6489937E+01  9.2858011E-03
 3.6508469E+01  8.1701269E-03
 3.6526997E+01  5.1191957E-03
 3.6545525E+01  7.3493463E-03
 3.6564053E+01  1.0336027E-02
 3.6582581E+01  9.5558995E-03
 3.6601109E+01  7.4399472E-03
 3.6619637E+01  7.9175904E-03
 3.6638168E+01  7.8567043E-03
 3.6656696E+01  8.8404370E-03
 3.6675224E+01  1.1940258E-02
 3.6693752E+01  1.5325525E-02
 3.6712280E+01  1.5476166E-02
 3.6730808E+01  1.4433899E-02
 3.6749336E+01  1.3335243E-02
 3.6767868E+01  1.9273620E-02
 3.6786396E+01  2.8661495E-02
 3.6804924E+01  3.5598282E-02
 3.6823452E+01  3.7482288E-02
 3.6841980E+01  3.7778590E-02
 3.6860508E+01  3.0462660E-02
 3.6879040E+01  2.6069596E-02
 3.6897568E+01  2.2719633E-02
 3.6916096E+01  1.5300650E-02
 3.6934624E+01  1.7681038E-02
 3.6953152E+01  1.9244935E-02
 3.6971680E+01  1.7693207E-02
 3.6990208E+01  1.1903139E-02
 3.7008739E+01  9.9033229E-03
 3.7027267E+01  1.0548301E-02
 3.7045795E+01  9.6555855E-03
 3.7064323E+01  1.1264613E-02
 3.7082851E+01  1.1886436E-02
 3.7101379E+01  1.0208477E-02
 3.7119907E+01  7.9164254E-03
 3.7138439E+01  5.3368579E-03
 3.7156967E+01  6.3155987E-03
 3.7175495E+01  8.4506180E-03
 3.7194023E+01  7.7786590E-03
 3.7212551E+01  6.0819504E-03
 3.7231079E+01  1.0323257E-02
 3.7249607E+01  1.0840971E-02
 3.7268139E+01  8.3151655E-03
 3.7286667E+01  8.9384420E-03
 3.7305195E+01  7.6312218E-03
 3.7323723E+01  6.9976002E-03
 3.7342251E+01  6.1834222E-03
 3.7360779E+01  6.0082353E-03
 3.7379307E+01  5.1390990E-03
 3.7397839E+01  1.8165084E-03
 3.7416367E+01  3.6728818E-03
 3.7434895E+01  6.0682553E-03
 3.7453423E+01  6.4898343E-03
 3.7471951E+01  8.6371358E-03
 3.7490479E+01  6.6828430E-03
 3.7509007E+01  6.1737583E-03
 3.7527538E+01  5.2622347E-03
 3.7546066E+01  1.8879662E-03
 3.7564594E+01  6.7035025E-03
 3.7583122E+01  1.0845915E-02
 3.7601650E+01  8.9871408E-03
 3.7620178E+01  7.6168738E-03
 3.7638706E+01  1.2545560E-02
 3.7657238E+01  1.5158717E-02
 3.7675766E+01  1.4091128E-02
 3.7694294E+01  8.3286529E-03
 3.7712822E+01  1.1288901E-03
 3.7731350E+01  7.4931583E-04
 3.7749878E+01  3.5148198E-03
 3.7768406E+01  5.0016255E-03
 3.7786938E+01  8.1174616E-03
 3.7805466E+01  7.4034827E-03
 3.7823994E+01  7.5272741E-03
 3.7842522E+01  6.9328933E-03
 3.7861050E+01  3.3678070E-03
 3.7879578E+01  7.1439375E-03
 3.7898106E+01  8.6246235E-03
 3.7916637E+01  9.6252775E-03
 3.7935165E+01  1.1085260E-02
 3.7953693E+01  7.8266682E-03
 3.7972221E+01  8.1834495E-03
 3.7990749E+01  9.2520108E-03
 3.8009277E+01  7.6007089E-03
 3.8027805E+01  5.9066112E-03
 3.8046337E+01  7.2001182E-03
 3.8064865E+01  6.0810912E-03
 3.8083393E+01  4.6600592E-03
 3.8101921E+01  6.5344730E-03
 3.8120449E+01  5.4377271E-03
 3.8138977E+01  3.6690703E-03
 3.8157505E+01  7.3757768E-03
 3.8176037E+01  6.7470949E-03
 3.8194565E+01  6.3019791E-03
 3.8213093E+01  8.6290399E-03
 3.8231621E+01  1.0799736E-02
 3.8250149E+01  7.4770441E-03
 3.8268677E+01  3.6881175E-03
 3.8287209E+01  5.8754859E-03
 3.8305737E+01  1.0196063E-02
 3.8324265E+01  8.3395112E-03
 3.8342793E+01  6.4947065E-03
 3.8361320E+01  1.0072132E-02
 3.8379848E+01  7.5165168E-03
 3.8398376E+01  8.3672768E-03
 3.8416908E+01  1.2177586E-02
 3.8435436E+01  9.9500865E-03
 3.8453964E+01  1.1299437E-02
 3.8472492E+01  9.2665302E-03
 3.8491020E+01  1.1952183E-02
 3.8509548E+01  8.0117909E-03
 3.8528076E+01  1.1093962E-03
 3.8546608E+01  2.9660161E-03
 3.8565136E+01  7.6630246E-03
 3.8583664E+01  1.5209520E-02
 3.8602192E+01  1.0596821E-02
 3.8620720E+01  6.0611954E-03
 3.8639248E+01  2.8798182E-03
 3.8657776E+01  4.1657272E-03
 3.8676308E+01  2.9734101E-03
 3.8694836E+01  8.2910396E-03
 3.8713364E+01  1.1075258E-02
 3.8731892E+01  4.4304831E-03
 3.8750420E+01  3.1543518E-03
 3.8768948E+01  5.8691613E-03
 3.8787476E+01  3.0811559E-03
 3.8806007E+01 -1.6909132E-03
 3.8824535E+01 -1.4520690E-03
 3.8843063E+01  3.7432669E-03
 3.8861591E+01  4.9096197E-03
 3.8880119E+01  4.6982113E-03
 3.8898647E+01 -1.3632996E-03
 3.8917175E+01  2.4332299E-03
 3.8935707E+01  7.8313369E-03
 3.8954235E+01  7.4998615E-03
 3.8972763E+01  5.0647170E-03
 3.8991291E+01 -7.9989963E-04
 3.9009819E+01  2.0558515E-03
 3.9028347E+01  2.5583580E-03
 3.9046875E+01  5.8041681E-03
 3.9065407E+01  7.7410447E-03
 3.9083935E+01  7.7921646E-03
 3.9102463E+01  5.3722863E-03
 3.9120991E+01  1.4134362E-02
 3.9139519E+01  9.1064582E-03
 3.9158047E+01  3.0197005E-03
 3.9176575E+01  3.9002430E-03
 3.9195107E+01  4.2575230E-03
 3.9213634E+01  3.1128358E-03
 3.9232162E+01  6.0319016E-03
 3.9250690E+01  6.1449679E-03
 3.9269218E+01  3.5610504E-03
 3.9287746E+01  9.6766427E-03
 3.9306274E+01  1.4864640E-02
 3.9324806E+01  1.4728166E-02
 3.9343334E+01  9.6775871E-03
 3.9361862E+01  2.6526391E-03
 3.9380390E+01  5.4724244E-03
 3.9398918E+01  1.1121870E-02
 3.9417446E+01  8.3859609E-03
 3.9435974E+01  8.1051132E-03
 3.9454506E+01  8.1987707E-03
 3.9473034E+01  1.3408807E-02
 3.9491562E+01  1.1724022E-02
 3.9510090E+01  3.3379088E-03
 3.9528618E+01  8.2966741E-03
 3.9547146E+01  9.9963732E-03
 3.9565674E+01  1.3906986E-02
 3.9584206E+01  9.5540686E-03
 3.9602734E+01  8.4946817E-03
 3.9621262E+01  1.9430986E-02
 3.9639790E+01  5.3366665E-03
 3.9658318E+01  8.2247686E-03
 3.9676846E+01  9.7549446E-03
 3.9695377E+01  1.0694801E-02
 3.9713905E+01  6.6292090E-03
 3.9732433E+01 -7.2125660E-04
 3.9750961E+01  9.0134917E-03
 3.9769489E+01  1.1681563E-02
 3.9788017E+01  8.4812203E-03
 3.9806545E+01  5.1381914E-03
 3.9825077E+01  3.8576969E-03
 3.9843605E+01  6.1328337E-03
 3.9862133E+01  8.0522951E-03
 3.9880661E+01  3.8005444E-03
 3.9899189E+01 -8.4281862E-03
 3.9917717E+01 -3.9818925E-03
 3.9936245E+01  7.0443279E-03
 3.9954777E+01  9.3201958E-03
 3.9973305E+01  7.6022004E-03
 3.9991833E+01  1.4150973E-03
 4.0010361E+01 -5.3487187E-03
 4.0028889E+01 -2.4451399E-03
 4.0047417E+01  5.6311339E-03
 4.0065945E+01  1.7124234E-02
 4.0084476E+01  1.2164864E-02
 4.0103004E+01  7.8940708E-03
 4.0121532E+01  5.8477209E-03
 4.0140060E+01 -3.2469525E-03
 4.0158588E+01  3.3334561E-03
 4.0177116E+01  9.3264179E-03
 4.0195644E+01  5.5946871E-03
 4.0214176E+01  2.4088572E-03
 4.0232704E+01  5.7239216E-03
 4.0251232E+01  6.9118585E-03
 4.0269760E+01  1.0020671E-02
 4.0288288E+01  7.6345829E-03
 4.0306816E+01  1.2082575E-02
 4.0325344E+01  8.6964555E-03
 4.0343876E+01  5.7710954E-03
 4.0362404E+01  1.3093028E-03
 4.0380932E+01 -2.3202600E-03
 4.0399460E+01  7.4674524E-03
 4.0417988E+01  1.5381198E-02
 4.0436516E+01  4.5428858E-03
 4.0455044E+01  1.8826876E-03
 4.0473576E+01  8.4364517E-03
 4.0492104E+01  2.1427083E-03
 4.0510632E+01  7.0385337E-03
 4.0529160E+01  1.5930688E-02
 4.0547688E+01  1.0055298E-02
 4.0566216E+01  1.1700402E-02
 4.0584743E+01  1.8761696E-02
 4.0603275E+01  2.3405142E-02
 4.0621803E+01  1.4551771E-02
 4.0640331E+01  8.0851940E-03
 4.0658859E+01 -4.8329760E-03
 4.0677387E+01 -1.7124092E-03
 4.0695915E+01 -1.7183459E-03
 4.0714443E+01  1.3892674E-02
 4.0732975E+01  1.4247286E-02
 4.0751503E+01  7.1994346E-03
 4.0770031E+01  1.2327360E-02
 4.0788559E+01  2.9097538E-02
 4.0807087E+01  1.3447284E-02
 4.0825615E+01  6.4884475E-03
 4.0844143E+01 -2.8681970E-04
 4.0862675E+01  7.6700295E-03
 4.0881203E+01  1.0504536E-02
 4.0899731E+01  6.0477951E-03
 4.0918259E+01  1.1153347E-03
 4.0936787E+01 -4.5324853E-03
 4.0955315E+01  3.3780024E-03
 4.0973843E+01  2.1812681E-02
 4.0992374E+01  7.6860511E-03
 4.1010902E+01 -3.5137397E-03
 4.1029430E+01  1.1296717E-02
 4.1047958E+01  2.3458200E-03
 4.1066486E+01  5.4819593E-03
 4.1085014E+01  2.1429840E-02
 4.1103542E+01  5.6607937E-03
 4.1122074E+01 -1.2135593E-02
 4.1140602E+01 -8.1824707E-03
 4.1159130E+01 -2.6544945E-03
 4.1177658E+01  3.6269962E-04
 4.1196186E+01  8.2716662E-03
 4.1214714E+01  1.3943535E-02
 4.1233246E+01 -3.4069214E-03
 4.1251774E+01  7.6361448E-06
 4.1270302E+01  8.2455399E-03
 4.1288830E+01 -3.9312439E-03
