ESPIA FRELON Image 6105: Azimuth/2-theta
2-Theta Angle (Degrees)
Intensity
       2048
 3.3609154E+00  1.4684916E-01
 3.3794439E+00  1.4770786E-01
 3.3979723E+00  1.4908367E-01
 3.4165008E+00  1.5131949E-01
 3.4350295E+00  1.5186621E-01
 3.4535580E+00  1.5170954E-01
 3.4720864E+00  1.5005422E-01
 3.4906151E+00  1.4790054E-01
 3.5091436E+00  1.4641066E-01
 3.5276721E+00  1.4629732E-01
 3.5462008E+00  1.4733121E-01
 3.5647292E+00  1.4494635E-01
 3.5832577E+00  1.4337744E-01
 3.6017864E+00  1.4287144E-01
 3.6203148E+00  1.4191487E-01
 3.6388433E+00  1.4119567E-01
 3.6573718E+00  1.4228813E-01
 3.6759005E+00  1.4121473E-01
 3.6944289E+00  1.4110403E-01
 3.7129574E+00  1.4320067E-01
 3.7314861E+00  1.4155568E-01
 3.7500145E+00  1.4194219E-01
 3.7685430E+00  1.4219387E-01
 3.7870717E+00  1.4157166E-01
 3.8056002E+00  1.4162731E-01
 3.8241286E+00  1.4140421E-01
 3.8426573E+00  1.4149036E-01
 3.8611858E+00  1.4076804E-01
 3.8797143E+00  1.4121588E-01
 3.8982427E+00  1.4150974E-01
 3.9167714E+00  1.4022219E-01
 3.9352999E+00  1.3900431E-01
 3.9538283E+00  1.3753012E-01
 3.9723570E+00  1.3563767E-01
 3.9908855E+00  1.3338210E-01
 4.0094142E+00  1.3307410E-01
 4.0279427E+00  1.3297074E-01
 4.0464711E+00  1.3159280E-01
 4.0649996E+00  1.3073409E-01
 4.0835280E+00  1.3214606E-01
 4.1020565E+00  1.3224560E-01
 4.1205854E+00  1.3447411E-01
 4.1391139E+00  1.3411170E-01
 4.1576424E+00  1.3217171E-01
 4.1761708E+00  1.3322929E-01
 4.1946993E+00  1.3150029E-01
 4.2132277E+00  1.2957686E-01
 4.2317562E+00  1.2743993E-01
 4.2502851E+00  1.2679349E-01
 4.2688136E+00  1.2686008E-01
 4.2873421E+00  1.2772807E-01
 4.3058705E+00  1.2828098E-01
 4.3243990E+00  1.2943634E-01
 4.3429275E+00  1.2879369E-01
 4.3614564E+00  1.2828989E-01
 4.3799849E+00  1.2810935E-01
 4.3985133E+00  1.2561576E-01
 4.4170418E+00  1.2507690E-01
 4.4355702E+00  1.2687752E-01
 4.4540987E+00  1.2828301E-01
 4.4726272E+00  1.2797886E-01
 4.4911561E+00  1.2712905E-01
 4.5096846E+00  1.2519197E-01
 4.5282130E+00  1.2004610E-01
 4.5467415E+00  1.1758333E-01
 4.5652699E+00  1.1883382E-01
 4.5837984E+00  1.2054307E-01
 4.6023273E+00  1.2140152E-01
 4.6208558E+00  1.2072441E-01
 4.6393843E+00  1.2098197E-01
 4.6579127E+00  1.1937804E-01
 4.6764412E+00  1.1790077E-01
 4.6949697E+00  1.1696015E-01
 4.7134981E+00  1.1560841E-01
 4.7320271E+00  1.1560100E-01
 4.7505555E+00  1.1558034E-01
 4.7690840E+00  1.1628385E-01
 4.7876124E+00  1.1646301E-01
 4.8061409E+00  1.1487889E-01
 4.8246694E+00  1.1388654E-01
 4.8431983E+00  1.1476106E-01
 4.8617268E+00  1.1522468E-01
 4.8802552E+00  1.1851594E-01
 4.8987837E+00  1.2166044E-01
 4.9173121E+00  1.2210469E-01
 4.9358406E+00  1.2242708E-01
 4.9543691E+00  1.2119028E-01
 4.9728980E+00  1.1838358E-01
 4.9914265E+00  1.1415950E-01
 5.0099549E+00  1.1269735E-01
 5.0284834E+00  1.1246502E-01
 5.0470119E+00  1.1412280E-01
 5.0655403E+00  1.1469123E-01
 5.0840693E+00  1.1146321E-01
 5.1025977E+00  1.0914957E-01
 5.1211262E+00  1.0887653E-01
 5.1396546E+00  1.0945626E-01
 5.1581831E+00  1.0923856E-01
 5.1767116E+00  1.1077305E-01
 5.1952400E+00  1.1227763E-01
 5.2137690E+00  1.1067756E-01
 5.2322974E+00  1.0867665E-01
 5.2508259E+00  1.0801901E-01
 5.2693543E+00  1.0875262E-01
 5.2878828E+00  1.0788348E-01
 5.3064113E+00  1.0769029E-01
 5.3249402E+00  1.0823575E-01
 5.3434687E+00  1.0603201E-01
 5.3619971E+00  1.0532944E-01
 5.3805256E+00  1.0639250E-01
 5.3990541E+00  1.0616144E-01
 5.4175825E+00  1.0432579E-01
 5.4361115E+00  1.0332101E-01
 5.4546399E+00  1.0201618E-01
 5.4731684E+00  1.0168185E-01
 5.4916968E+00  1.0503624E-01
 5.5102253E+00  1.0702799E-01
 5.5287538E+00  1.0545540E-01
 5.5472822E+00  1.0391903E-01
 5.5658112E+00  1.0301360E-01
 5.5843396E+00  1.0262530E-01
 5.6028681E+00  1.0286926E-01
 5.6213965E+00  1.0183589E-01
 5.6399250E+00  1.0275065E-01
 5.6584535E+00  1.0419384E-01
 5.6769824E+00  1.0417951E-01
 5.6955109E+00  1.0560449E-01
 5.7140393E+00  1.0600834E-01
 5.7325678E+00  1.0510604E-01
 5.7510962E+00  1.0275700E-01
 5.7696247E+00  1.0287315E-01
 5.7881532E+00  1.0401243E-01
 5.8066821E+00  1.0437761E-01
 5.8252106E+00  1.0371637E-01
 5.8437390E+00  9.9646837E-02
 5.8622675E+00  9.8730624E-02
 5.8807960E+00  9.9028595E-02
 5.8993244E+00  1.0098184E-01
 5.9178534E+00  1.0167603E-01
 5.9363818E+00  9.8967753E-02
 5.9549103E+00  9.8929852E-02
 5.9734387E+00  9.8010682E-02
 5.9919672E+00  9.7575463E-02
 6.0104957E+00  9.6417606E-02
 6.0290241E+00  9.4403841E-02
 6.0475531E+00  9.4202369E-02
 6.0660815E+00  9.5493361E-02
 6.0846100E+00  9.7721174E-02
 6.1031384E+00  9.7156830E-02
 6.1216669E+00  9.7605802E-02
 6.1401954E+00  9.8327316E-02
 6.1587243E+00  9.8206446E-02
 6.1772528E+00  9.6250430E-02
 6.1957812E+00  9.4907723E-02
 6.2143097E+00  9.4732977E-02
 6.2328382E+00  9.3856685E-02
 6.2513666E+00  9.2493773E-02
 6.2698951E+00  8.9042589E-02
 6.2884240E+00  8.7818965E-02
 6.3069525E+00  8.9441195E-02
 6.3254809E+00  9.2167169E-02
 6.3440094E+00  9.3600065E-02
 6.3625379E+00  9.3126282E-02
 6.3810663E+00  9.3214229E-02
 6.3995953E+00  9.2474878E-02
 6.4181237E+00  9.1448121E-02
 6.4366522E+00  9.0308361E-02
 6.4551806E+00  9.0412371E-02
 6.4737091E+00  8.9779109E-02
 6.4922376E+00  9.0361878E-02
 6.5107660E+00  9.1963038E-02
 6.5292950E+00  9.0227790E-02
 6.5478234E+00  8.8262066E-02
 6.5663519E+00  8.6598530E-02
 6.5848804E+00  8.7738097E-02
 6.6034088E+00  8.9027800E-02
 6.6219373E+00  8.8970065E-02
 6.6404662E+00  8.8886723E-02
 6.6589947E+00  8.8561714E-02
 6.6775231E+00  8.7485500E-02
 6.6960516E+00  8.4319688E-02
 6.7145801E+00  8.3265483E-02
 6.7331085E+00  8.4974125E-02
 6.7516370E+00  8.4598988E-02
 6.7701659E+00  8.2764685E-02
 6.7886944E+00  8.2842201E-02
 6.8072228E+00  8.5134096E-02
 6.8257513E+00  8.5854582E-02
 6.8442798E+00  8.3623685E-02
 6.8628082E+00  8.2029782E-02
 6.8813372E+00  8.2909063E-02
 6.8998656E+00  8.3382979E-02
 6.9183941E+00  8.3574690E-02
 6.9369226E+00  8.4514514E-02
 6.9554510E+00  8.3832465E-02
 6.9739795E+00  8.0475584E-02
 6.9925079E+00  7.8681931E-02
 7.0110369E+00  8.2353897E-02
 7.0295653E+00  8.4109485E-02
 7.0480938E+00  8.3165690E-02
 7.0666223E+00  8.2867213E-02
 7.0851507E+00  8.1740431E-02
 7.1036792E+00  8.0757625E-02
 7.1222081E+00  8.1926227E-02
 7.1407366E+00  8.4622711E-02
 7.1592650E+00  8.3476335E-02
 7.1777935E+00  8.0453865E-02
 7.1963220E+00  7.9870559E-02
 7.2148504E+00  7.9436377E-02
 7.2333789E+00  7.9450883E-02
 7.2519078E+00  7.9668328E-02
 7.2704363E+00  8.0285802E-02
 7.2889647E+00  8.0461234E-02
 7.3074932E+00  8.0645755E-02
 7.3260217E+00  8.0007710E-02
 7.3445501E+00  7.8396082E-02
 7.3630791E+00  7.8657098E-02
 7.3816075E+00  7.8930251E-02
 7.4001360E+00  7.9764798E-02
 7.4186645E+00  7.9468682E-02
 7.4371929E+00  7.9400316E-02
 7.4557214E+00  8.0073275E-02
 7.4742498E+00  8.1025332E-02
 7.4927788E+00  7.9308070E-02
 7.5113072E+00  7.7409081E-02
 7.5298357E+00  7.7947915E-02
 7.5483642E+00  7.7867605E-02
 7.5668926E+00  7.9126686E-02
 7.5854211E+00  7.9081960E-02
 7.6039500E+00  7.6896399E-02
 7.6224785E+00  7.4295759E-02
 7.6410069E+00  7.4137375E-02
 7.6595354E+00  7.7338442E-02
 7.6780639E+00  7.9096094E-02
 7.6965923E+00  7.6064639E-02
 7.7151208E+00  7.3857248E-02
 7.7336497E+00  7.3957533E-02
 7.7521782E+00  7.2892278E-02
 7.7707067E+00  7.3901728E-02
 7.7892351E+00  7.5380817E-02
 7.8077636E+00  7.3813967E-02
 7.8262920E+00  7.1995325E-02
 7.8448210E+00  7.1870737E-02
 7.8633494E+00  7.2907858E-02
 7.8818779E+00  7.3564172E-02
 7.9004064E+00  7.4261248E-02
 7.9189348E+00  7.4816026E-02
 7.9374633E+00  7.3982932E-02
 7.9559917E+00  7.2598703E-02
 7.9745207E+00  7.1071893E-02
 7.9930491E+00  7.1737066E-02
 8.0115776E+00  7.2375737E-02
 8.0301065E+00  7.0812732E-02
 8.0486345E+00  6.9194272E-02
 8.0671635E+00  6.8659723E-02
 8.0856915E+00  6.8950973E-02
 8.1042204E+00  6.8570837E-02
 8.1227484E+00  6.8728335E-02
 8.1412773E+00  6.8230711E-02
 8.1598063E+00  6.8506375E-02
 8.1783342E+00  7.0547283E-02
 8.1968632E+00  7.0493549E-02
 8.2153912E+00  6.9103599E-02
 8.2339201E+00  6.8555333E-02
 8.2524481E+00  6.9351181E-02
 8.2709770E+00  6.8975419E-02
 8.2895060E+00  6.8018869E-02
 8.3080339E+00  6.8402022E-02
 8.3265629E+00  6.6962272E-02
 8.3450909E+00  6.6572011E-02
 8.3636198E+00  6.6557199E-02
 8.3821478E+00  6.5688953E-02
 8.4006767E+00  6.5323703E-02
 8.4192057E+00  6.5687932E-02
 8.4377337E+00  6.5598920E-02
 8.4562626E+00  6.5047070E-02
 8.4747906E+00  6.5597065E-02
 8.4933195E+00  6.5343015E-02
 8.5118484E+00  6.6083349E-02
 8.5303764E+00  6.6657536E-02
 8.5489054E+00  6.6935048E-02
 8.5674334E+00  6.7388169E-02
 8.5859623E+00  6.7117020E-02
 8.6044903E+00  6.7859836E-02
 8.6230192E+00  6.6330962E-02
 8.6415482E+00  6.4079441E-02
 8.6600761E+00  6.2716499E-02
 8.6786051E+00  6.2884912E-02
 8.6971331E+00  6.3457757E-02
 8.7156620E+00  6.2813282E-02
 8.7341900E+00  6.1732646E-02
 8.7527189E+00  6.0491201E-02
 8.7712479E+00  6.0600512E-02
 8.7897758E+00  6.1860189E-02
 8.8083048E+00  6.2553376E-02
 8.8268328E+00  6.3227735E-02
 8.8453617E+00  6.3175656E-02
 8.8638897E+00  6.3155055E-02
 8.8824186E+00  6.3063443E-02
 8.9009476E+00  6.2510759E-02
 8.9194756E+00  6.2591493E-02
 8.9380045E+00  6.2692419E-02
 8.9565325E+00  6.3086130E-02
 8.9750614E+00  6.2183663E-02
 8.9935904E+00  6.2128544E-02
 9.0121183E+00  6.2750943E-02
 9.0306473E+00  6.3550264E-02
 9.0491753E+00  6.4308636E-02
 9.0677042E+00  6.2556371E-02
 9.0862322E+00  6.1512947E-02
 9.1047611E+00  6.1780918E-02
 9.1232901E+00  6.2030949E-02
 9.1418180E+00  6.1704062E-02
 9.1603470E+00  5.9908312E-02
 9.1788750E+00  5.8523584E-02
 9.1974039E+00  5.5671770E-02
 9.2159319E+00  5.3711433E-02
 9.2344608E+00  5.4916572E-02
 9.2529898E+00  5.6527689E-02
 9.2715178E+00  5.8291014E-02
 9.2900467E+00  6.0124282E-02
 9.3085747E+00  5.9909984E-02
 9.3271036E+00  5.8126353E-02
 9.3456316E+00  5.6895383E-02
 9.3641605E+00  5.6259539E-02
 9.3826895E+00  5.7238042E-02
 9.4012175E+00  5.8258746E-02
 9.4197464E+00  5.7130378E-02
 9.4382744E+00  5.6071166E-02
 9.4568033E+00  5.6467734E-02
 9.4753323E+00  5.6545857E-02
 9.4938602E+00  5.5949576E-02
 9.5123892E+00  5.5818621E-02
 9.5309172E+00  5.5385638E-02
 9.5494461E+00  5.6255020E-02
 9.5679741E+00  5.7541315E-02
 9.5865030E+00  5.6275461E-02
 9.6050320E+00  5.4677416E-02
 9.6235600E+00  5.4906297E-02
 9.6420889E+00  5.5182461E-02
 9.6606169E+00  5.1878117E-02
 9.6791458E+00  5.1414475E-02
 9.6976738E+00  5.3597182E-02
 9.7162027E+00  5.2596431E-02
 9.7347317E+00  5.2866407E-02
 9.7532597E+00  5.3626586E-02
 9.7717886E+00  5.3825881E-02
 9.7903166E+00  5.4656267E-02
 9.8088455E+00  5.4662425E-02
 9.8273735E+00  5.5036496E-02
 9.8459024E+00  5.4851983E-02
 9.8644314E+00  5.4290526E-02
 9.8829594E+00  5.4067936E-02
 9.9014883E+00  5.3306546E-02
 9.9200163E+00  5.2727908E-02
 9.9385452E+00  5.2918036E-02
 9.9570742E+00  5.3699728E-02
 9.9756021E+00  5.3333689E-02
 9.9941311E+00  5.3663988E-02
 1.0012659E+01  5.3941812E-02
 1.0031188E+01  5.3149898E-02
 1.0049716E+01  5.1887661E-02
 1.0068245E+01  5.1886164E-02
 1.0086774E+01  5.3046729E-02
 1.0105302E+01  5.3953283E-02
 1.0123831E+01  5.3811878E-02
 1.0142359E+01  5.3952862E-02
 1.0160888E+01  5.4833315E-02
 1.0179416E+01  5.5594858E-02
 1.0197945E+01  5.3654108E-02
 1.0216474E+01  5.3168651E-02
 1.0235002E+01  5.4220803E-02
 1.0253531E+01  5.4111488E-02
 1.0272058E+01  5.4633971E-02
 1.0290587E+01  5.2863877E-02
 1.0309115E+01  5.2061930E-02
 1.0327644E+01  5.2074246E-02
 1.0346173E+01  5.1494591E-02
 1.0364701E+01  5.1823612E-02
 1.0383230E+01  5.1576484E-02
 1.0401758E+01  5.1548529E-02
 1.0420287E+01  5.1825117E-02
 1.0438816E+01  5.1027182E-02
 1.0457344E+01  5.0383866E-02
 1.0475873E+01  5.1846057E-02
 1.0494401E+01  5.2175473E-02
 1.0512930E+01  5.1091053E-02
 1.0531458E+01  5.0719280E-02
 1.0549987E+01  5.1329698E-02
 1.0568516E+01  5.2868795E-02
 1.0587044E+01  5.2787136E-02
 1.0605573E+01  5.1227584E-02
 1.0624101E+01  5.0246760E-02
 1.0642630E+01  5.0141197E-02
 1.0661158E+01  4.9635381E-02
 1.0679687E+01  4.9122714E-02
 1.0698215E+01  5.0413847E-02
 1.0716743E+01  5.1081702E-02
 1.0735272E+01  4.9585178E-02
 1.0753800E+01  4.8571132E-02
 1.0772329E+01  4.8229508E-02
 1.0790857E+01  4.7729000E-02
 1.0809386E+01  4.8588861E-02
 1.0827915E+01  5.0278820E-02
 1.0846443E+01  4.9912740E-02
 1.0864972E+01  4.9919918E-02
 1.0883500E+01  5.0297461E-02
 1.0902029E+01  4.9847562E-02
 1.0920558E+01  4.9900860E-02
 1.0939086E+01  5.0196104E-02
 1.0957615E+01  4.8839852E-02
 1.0976143E+01  4.8077095E-02
 1.0994672E+01  4.8346594E-02
 1.1013200E+01  4.6822648E-02
 1.1031729E+01  4.6606276E-02
 1.1050258E+01  4.9178760E-02
 1.1068786E+01  5.0226670E-02
 1.1087315E+01  4.9066126E-02
 1.1105843E+01  4.8584748E-02
 1.1124372E+01  4.7687266E-02
 1.1142900E+01  4.7510616E-02
 1.1161428E+01  4.7299262E-02
 1.1179957E+01  4.7606684E-02
 1.1198485E+01  4.8655726E-02
 1.1217014E+01  4.6979107E-02
 1.1235542E+01  4.4346243E-02
 1.1254071E+01  4.4062234E-02
 1.1272599E+01  4.5151230E-02
 1.1291128E+01  4.5414444E-02
 1.1309657E+01  4.3787282E-02
 1.1328185E+01  4.3213695E-02
 1.1346714E+01  4.4740263E-02
 1.1365242E+01  4.6194233E-02
 1.1383771E+01  4.5862749E-02
 1.1402300E+01  4.5657169E-02
 1.1420828E+01  4.5352772E-02
 1.1439357E+01  4.3745596E-02
 1.1457885E+01  4.3739296E-02
 1.1476414E+01  4.6728373E-02
 1.1494942E+01  4.8386779E-02
 1.1513471E+01  4.7928486E-02
 1.1532000E+01  4.6562169E-02
 1.1550528E+01  4.5693189E-02
 1.1569057E+01  4.6264496E-02
 1.1587584E+01  4.6596672E-02
 1.1606113E+01  4.5709576E-02
 1.1624641E+01  4.5386523E-02
 1.1643170E+01  4.5704536E-02
 1.1661699E+01  4.6001967E-02
 1.1680227E+01  4.6573013E-02
 1.1698756E+01  4.5968130E-02
 1.1717284E+01  4.7493018E-02
 1.1735813E+01  4.8049685E-02
 1.1754341E+01  4.6053182E-02
 1.1772870E+01  4.4416800E-02
 1.1791399E+01  4.2839464E-02
 1.1809927E+01  4.3651853E-02
 1.1828456E+01  4.5020971E-02
 1.1846984E+01  4.5155402E-02
 1.1865513E+01  4.5786429E-02
 1.1884042E+01  4.6117067E-02
 1.1902570E+01  4.4887692E-02
 1.1921099E+01  4.3461584E-02
 1.1939627E+01  4.3561935E-02
 1.1958156E+01  4.4320103E-02
 1.1976684E+01  4.2584728E-02
 1.1995213E+01  4.0058706E-02
 1.2013741E+01  4.0145840E-02
 1.2032269E+01  4.1763149E-02
 1.2050798E+01  4.1847493E-02
 1.2069326E+01  4.1786540E-02
 1.2087855E+01  4.1908253E-02
 1.2106383E+01  4.2177398E-02
 1.2124912E+01  4.2105652E-02
 1.2143441E+01  4.1916825E-02
 1.2161969E+01  4.2117141E-02
 1.2180498E+01  4.2047773E-02
 1.2199026E+01  4.2268567E-02
 1.2217555E+01  4.2907756E-02
 1.2236083E+01  4.1473895E-02
 1.2254612E+01  3.8709838E-02
 1.2273141E+01  3.9317884E-02
 1.2291669E+01  4.1100442E-02
 1.2310198E+01  4.1961506E-02
 1.2328726E+01  4.1090604E-02
 1.2347255E+01  3.9631795E-02
 1.2365784E+01  3.8199723E-02
 1.2384312E+01  3.8329396E-02
 1.2402841E+01  3.8638476E-02
 1.2421369E+01  3.7974305E-02
 1.2439898E+01  3.9293230E-02
 1.2458426E+01  4.0214609E-02
 1.2476954E+01  3.9492249E-02
 1.2495483E+01  3.8818806E-02
 1.2514011E+01  3.8277611E-02
 1.2532540E+01  3.7744321E-02
 1.2551068E+01  3.7279904E-02
 1.2569597E+01  3.7088085E-02
 1.2588125E+01  3.7522987E-02
 1.2606654E+01  3.8399182E-02
 1.2625183E+01  3.8354177E-02
 1.2643711E+01  3.7906423E-02
 1.2662240E+01  3.9233513E-02
 1.2680768E+01  4.1469615E-02
 1.2699297E+01  4.2659495E-02
 1.2717826E+01  4.1952088E-02
 1.2736354E+01  4.0051993E-02
 1.2754883E+01  3.9275728E-02
 1.2773411E+01  4.0173654E-02
 1.2791940E+01  3.9747562E-02
 1.2810468E+01  3.8426694E-02
 1.2828997E+01  3.8220767E-02
 1.2847526E+01  3.8748074E-02
 1.2866054E+01  4.0285736E-02
 1.2884583E+01  3.9143097E-02
 1.2903111E+01  3.7494071E-02
 1.2921639E+01  3.7787091E-02
 1.2940167E+01  3.8926002E-02
 1.2958696E+01  3.9131373E-02
 1.2977225E+01  3.7701450E-02
 1.2995753E+01  3.6022376E-02
 1.3014282E+01  3.4702059E-02
 1.3032810E+01  3.3428013E-02
 1.3051339E+01  3.4176730E-02
 1.3069867E+01  3.6961142E-02
 1.3088396E+01  3.7769146E-02
 1.3106925E+01  3.6769141E-02
 1.3125453E+01  3.5756059E-02
 1.3143982E+01  3.5719186E-02
 1.3162510E+01  3.6969334E-02
 1.3181039E+01  3.7412379E-02
 1.3199568E+01  3.7403833E-02
 1.3218096E+01  3.5822250E-02
 1.3236625E+01  3.4268562E-02
 1.3255153E+01  3.4588054E-02
 1.3273682E+01  3.5057206E-02
 1.3292210E+01  3.5644080E-02
 1.3310739E+01  3.5053778E-02
 1.3329268E+01  3.3342589E-02
 1.3347795E+01  3.4019768E-02
 1.3366324E+01  3.6840089E-02
 1.3384852E+01  3.6438338E-02
 1.3403381E+01  3.5178393E-02
 1.3421909E+01  3.6622662E-02
 1.3440438E+01  3.6981322E-02
 1.3458967E+01  3.6662243E-02
 1.3477495E+01  3.5680454E-02
 1.3496024E+01  3.4648977E-02
 1.3514552E+01  3.4494828E-02
 1.3533081E+01  3.4536518E-02
 1.3551609E+01  3.6874577E-02
 1.3570138E+01  3.7411053E-02
 1.3588667E+01  3.7155788E-02
 1.3607195E+01  3.6874153E-02
 1.3625724E+01  3.5186674E-02
 1.3644252E+01  3.4717444E-02
 1.3662781E+01  3.4740411E-02
 1.3681310E+01  3.4351625E-02
 1.3699838E+01  3.4520388E-02
 1.3718367E+01  3.4992110E-02
 1.3736895E+01  3.4701046E-02
 1.3755424E+01  3.3819478E-02
 1.3773952E+01  3.2924101E-02
 1.3792480E+01  3.1735986E-02
 1.3811009E+01  3.1710070E-02
 1.3829537E+01  3.2692563E-02
 1.3848066E+01  3.3009607E-02
 1.3866594E+01  3.4249295E-02
 1.3885123E+01  3.6250073E-02
 1.3903651E+01  3.6053021E-02
 1.3922180E+01  3.4943398E-02
 1.3940709E+01  3.5223771E-02
 1.3959237E+01  3.4081899E-02
 1.3977766E+01  3.2737348E-02
 1.3996294E+01  3.2741033E-02
 1.4014823E+01  3.2440741E-02
 1.4033351E+01  3.2386366E-02
 1.4051880E+01  3.3594504E-02
 1.4070409E+01  3.4844823E-02
 1.4088937E+01  3.4461420E-02
 1.4107466E+01  3.2014262E-02
 1.4125994E+01  3.0125227E-02
 1.4144523E+01  3.0463716E-02
 1.4163052E+01  3.1285767E-02
 1.4181580E+01  3.2662526E-02
 1.4200109E+01  3.4835100E-02
 1.4218637E+01  3.5839338E-02
 1.4237165E+01  3.5083063E-02
 1.4255693E+01  3.5180971E-02
 1.4274222E+01  3.4744103E-02
 1.4292751E+01  3.5104323E-02
 1.4311279E+01  3.4768034E-02
 1.4329808E+01  3.5063826E-02
 1.4348336E+01  3.4713861E-02
 1.4366865E+01  3.2741871E-02
 1.4385393E+01  3.2764222E-02
 1.4403922E+01  3.4602698E-02
 1.4422451E+01  3.5674542E-02
 1.4440979E+01  3.4832671E-02
 1.4459508E+01  3.2635815E-02
 1.4478036E+01  3.1625822E-02
 1.4496565E+01  3.2897595E-02
 1.4515093E+01  3.4275793E-02
 1.4533622E+01  3.4432530E-02
 1.4552151E+01  3.3275623E-02
 1.4570679E+01  3.3301305E-02
 1.4589208E+01  3.4034282E-02
 1.4607736E+01  3.3750717E-02
 1.4626265E+01  3.2895952E-02
 1.4644794E+01  3.2000143E-02
 1.4663321E+01  3.2519341E-02
 1.4681850E+01  3.4474928E-02
 1.4700378E+01  3.3425711E-02
 1.4718907E+01  3.2429185E-02
 1.4737435E+01  3.3333976E-02
 1.4755964E+01  3.4408655E-02
 1.4774493E+01  3.4316089E-02
 1.4793021E+01  3.2789860E-02
 1.4811550E+01  3.2387033E-02
 1.4830078E+01  3.1792007E-02
 1.4848607E+01  3.2153878E-02
 1.4867135E+01  3.2175198E-02
 1.4885664E+01  3.1016581E-02
 1.4904193E+01  3.0647980E-02
 1.4922721E+01  3.0383548E-02
 1.4941250E+01  2.9897207E-02
 1.4959778E+01  3.0723561E-02
 1.4978307E+01  3.1812299E-02
 1.4996835E+01  3.2126911E-02
 1.5015364E+01  3.2539748E-02
 1.5033893E+01  3.1662233E-02
 1.5052421E+01  3.1847373E-02
 1.5070950E+01  3.1665634E-02
 1.5089478E+01  2.9846326E-02
 1.5108006E+01  2.9173905E-02
 1.5126535E+01  2.9907564E-02
 1.5145063E+01  2.9697610E-02
 1.5163592E+01  3.0355290E-02
 1.5182120E+01  3.0074716E-02
 1.5200649E+01  2.9764595E-02
 1.5219177E+01  3.1193849E-02
 1.5237706E+01  3.1869002E-02
 1.5256235E+01  3.0605659E-02
 1.5274763E+01  2.9024936E-02
 1.5293292E+01  3.0363528E-02
 1.5311820E+01  3.0881217E-02
 1.5330349E+01  3.0115893E-02
 1.5348877E+01  3.0300738E-02
 1.5367406E+01  3.1821150E-02
 1.5385935E+01  3.1290457E-02
 1.5404463E+01  2.9404886E-02
 1.5422992E+01  2.8895123E-02
 1.5441520E+01  2.9677052E-02
 1.5460049E+01  3.0477991E-02
 1.5478577E+01  3.0130614E-02
 1.5497106E+01  3.1516828E-02
 1.5515635E+01  3.3389039E-02
 1.5534163E+01  3.2441225E-02
 1.5552691E+01  3.1999871E-02
 1.5571219E+01  3.2389533E-02
 1.5589748E+01  3.3007663E-02
 1.5608277E+01  3.3709690E-02
 1.5626805E+01  3.5454463E-02
 1.5645334E+01  3.5373323E-02
 1.5663862E+01  3.4102950E-02
 1.5682391E+01  3.3997361E-02
 1.5700919E+01  3.6210019E-02
 1.5719448E+01  4.0420406E-02
 1.5737977E+01  4.2025805E-02
 1.5756505E+01  4.3997735E-02
 1.5775034E+01  4.5947798E-02
 1.5793562E+01  4.8804656E-02
 1.5812091E+01  5.3195897E-02
 1.5830619E+01  5.8798194E-02
 1.5849148E+01  6.3925400E-02
 1.5867677E+01  6.8219669E-02
 1.5886205E+01  7.5887233E-02
 1.5904734E+01  8.4919646E-02
 1.5923262E+01  9.2449144E-02
 1.5941791E+01  1.0389636E-01
 1.5960319E+01  1.1643107E-01
 1.5978848E+01  1.2894352E-01
 1.5997376E+01  1.4535476E-01
 1.6015905E+01  1.5669887E-01
 1.6034433E+01  1.6709372E-01
 1.6052961E+01  1.7082354E-01
 1.6071489E+01  1.6430221E-01
 1.6090019E+01  1.5444210E-01
 1.6108547E+01  1.3394149E-01
 1.6127075E+01  1.0864855E-01
 1.6145605E+01  8.8656694E-02
 1.6164133E+01  7.1620099E-02
 1.6182661E+01  6.1127968E-02
 1.6201189E+01  5.2879043E-02
 1.6219719E+01  4.6999600E-02
 1.6238247E+01  4.2004909E-02
 1.6256775E+01  3.7761874E-02
 1.6275305E+01  3.6149066E-02
 1.6293833E+01  3.6995985E-02
 1.6312361E+01  3.7058782E-02
 1.6330891E+01  3.5155613E-02
 1.6349419E+01  3.3463791E-02
 1.6367947E+01  3.2916021E-02
 1.6386475E+01  3.2154508E-02
 1.6405005E+01  3.1296667E-02
 1.6423532E+01  3.1846259E-02
 1.6442060E+01  3.2717004E-02
 1.6460590E+01  3.2102674E-02
 1.6479118E+01  3.1647269E-02
 1.6497646E+01  3.2341417E-02
 1.6516174E+01  3.2109767E-02
 1.6534704E+01  3.2791045E-02
 1.6553232E+01  3.2126520E-02
 1.6571760E+01  3.0612836E-02
 1.6590290E+01  3.1224484E-02
 1.6608818E+01  3.1895366E-02
 1.6627346E+01  3.1920001E-02
 1.6645874E+01  3.0662434E-02
 1.6664404E+01  3.0295735E-02
 1.6682932E+01  3.0874489E-02
 1.6701460E+01  3.0628087E-02
 1.6719990E+01  3.0510237E-02
 1.6738518E+01  3.0127410E-02
 1.6757046E+01  3.0797521E-02
 1.6775574E+01  3.1404931E-02
 1.6794104E+01  3.1311795E-02
 1.6812632E+01  3.1893395E-02
 1.6831160E+01  3.2231014E-02
 1.6849689E+01  3.2053541E-02
 1.6868217E+01  3.2254752E-02
 1.6886745E+01  3.1606689E-02
 1.6905273E+01  3.1850521E-02
 1.6923803E+01  3.2566208E-02
 1.6942331E+01  3.2166511E-02
 1.6960859E+01  3.1783484E-02
 1.6979389E+01  3.1330008E-02
 1.6997917E+01  3.0326003E-02
 1.7016445E+01  3.0904409E-02
 1.7034973E+01  3.3061173E-02
 1.7053503E+01  3.5887338E-02
 1.7072031E+01  3.7518546E-02
 1.7090559E+01  3.7683215E-02
 1.7109089E+01  3.8761534E-02
 1.7127617E+01  4.1239053E-02
 1.7146145E+01  4.3842621E-02
 1.7164673E+01  4.8885148E-02
 1.7183203E+01  5.6706969E-02
 1.7201731E+01  6.4071603E-02
 1.7220259E+01  7.0519902E-02
 1.7238789E+01  7.3682360E-02
 1.7257317E+01  7.1071297E-02
 1.7275845E+01  6.8171382E-02
 1.7294374E+01  6.5039724E-02
 1.7312902E+01  6.3742220E-02
 1.7331430E+01  6.1523683E-02
 1.7349958E+01  5.9013095E-02
 1.7368488E+01  5.6772470E-02
 1.7387016E+01  5.2966423E-02
 1.7405544E+01  5.1433828E-02
 1.7424074E+01  4.7939874E-02
 1.7442602E+01  4.3499790E-02
 1.7461130E+01  4.1818384E-02
 1.7479658E+01  4.2048294E-02
 1.7498188E+01  3.9864268E-02
 1.7516716E+01  3.7922159E-02
 1.7535244E+01  3.7783101E-02
 1.7553774E+01  3.6456618E-02
 1.7572302E+01  3.4246620E-02
 1.7590830E+01  3.2671824E-02
 1.7609358E+01  3.1826910E-02
 1.7627888E+01  3.1281039E-02
 1.7646416E+01  3.1185525E-02
 1.7664944E+01  3.2441828E-02
 1.7683474E+01  3.3662494E-02
 1.7702002E+01  3.5382163E-02
 1.7720530E+01  3.5785038E-02
 1.7739058E+01  3.4614917E-02
 1.7757587E+01  3.5416242E-02
 1.7776115E+01  3.6227513E-02
 1.7794643E+01  3.6978535E-02
 1.7813173E+01  3.7067790E-02
 1.7831701E+01  3.6797393E-02
 1.7850229E+01  3.7769072E-02
 1.7868757E+01  4.0657192E-02
 1.7887287E+01  4.5928240E-02
 1.7905815E+01  5.0289314E-02
 1.7924343E+01  5.5709656E-02
 1.7942873E+01  6.3885495E-02
 1.7961401E+01  7.6441482E-02
 1.7979929E+01  9.8983511E-02
 1.7998457E+01  1.3639589E-01
 1.8016987E+01  1.9215478E-01
 1.8035515E+01  2.6454082E-01
 1.8054043E+01  3.5224882E-01
 1.8072573E+01  3.9035794E-01
 1.8091101E+01  3.9109230E-01
 1.8109629E+01  3.3707708E-01
 1.8128157E+01  2.7381575E-01
 1.8146687E+01  2.2645336E-01
 1.8165215E+01  2.0138542E-01
 1.8183743E+01  1.8761681E-01
 1.8202272E+01  1.7690408E-01
 1.8220800E+01  1.6880059E-01
 1.8239328E+01  1.5268199E-01
 1.8257858E+01  1.3788408E-01
 1.8276386E+01  1.2570806E-01
 1.8294914E+01  1.1131577E-01
 1.8313442E+01  1.0021730E-01
 1.8331972E+01  9.0756245E-02
 1.8350500E+01  8.4599234E-02
 1.8369028E+01  8.2387403E-02
 1.8387558E+01  8.4044777E-02
 1.8406086E+01  8.6626500E-02
 1.8424614E+01  9.1168910E-02
 1.8443142E+01  9.6570805E-02
 1.8461672E+01  1.0086794E-01
 1.8480200E+01  1.0208109E-01
 1.8498728E+01  9.9697262E-02
 1.8517258E+01  9.5166087E-02
 1.8535786E+01  9.0488859E-02
 1.8554314E+01  8.4331490E-02
 1.8572842E+01  7.8265429E-02
 1.8591372E+01  7.2481938E-02
 1.8609900E+01  6.5292537E-02
 1.8628428E+01  5.8450855E-02
 1.8646957E+01  5.1848870E-02
 1.8665485E+01  4.6958566E-02
 1.8684013E+01  4.4043563E-02
 1.8702541E+01  4.2007152E-02
 1.8721071E+01  4.0469434E-02
 1.8739599E+01  3.7884332E-02
 1.8758127E+01  3.5648048E-02
 1.8776657E+01  3.3191301E-02
 1.8795185E+01  3.0283220E-02
 1.8813713E+01  2.9577095E-02
 1.8832241E+01  3.0374680E-02
 1.8850771E+01  2.9177094E-02
 1.8869299E+01  2.6742609E-02
 1.8887827E+01  2.6815224E-02
 1.8906357E+01  2.7924804E-02
 1.8924885E+01  2.9186819E-02
 1.8943413E+01  2.9554471E-02
 1.8961941E+01  2.8363042E-02
 1.8980471E+01  2.7096923E-02
 1.8998999E+01  2.6870426E-02
 1.9017527E+01  2.6786655E-02
 1.9036057E+01  2.5802691E-02
 1.9054585E+01  2.5324417E-02
 1.9073112E+01  2.6136642E-02
 1.9091640E+01  2.5497898E-02
 1.9110170E+01  2.4909014E-02
 1.9128698E+01  2.4566265E-02
 1.9147226E+01  2.4884686E-02
 1.9165756E+01  2.6771234E-02
 1.9184284E+01  2.6880469E-02
 1.9202812E+01  2.6114121E-02
 1.9221342E+01  2.4676550E-02
 1.9239870E+01  2.3851966E-02
 1.9258398E+01  2.4089405E-02
 1.9276926E+01  2.4395071E-02
 1.9295456E+01  2.5153324E-02
 1.9313984E+01  2.5953827E-02
 1.9332512E+01  2.5510849E-02
 1.9351042E+01  2.4680348E-02
 1.9369570E+01  2.4841117E-02
 1.9388098E+01  2.4153125E-02
 1.9406626E+01  2.3334758E-02
 1.9425156E+01  2.2432558E-02
 1.9443684E+01  2.3094082E-02
 1.9462212E+01  2.4660625E-02
 1.9480742E+01  2.4529429E-02
 1.9499269E+01  2.3139136E-02
 1.9517797E+01  2.3154680E-02
 1.9536325E+01  2.3360938E-02
 1.9554855E+01  2.3670759E-02
 1.9573383E+01  2.4386911E-02
 1.9591911E+01  2.2219826E-02
 1.9610441E+01  1.9904101E-02
 1.9628969E+01  2.2265812E-02
 1.9647497E+01  2.4301840E-02
 1.9666025E+01  2.6122920E-02
 1.9684555E+01  2.5940381E-02
 1.9703083E+01  2.3104616E-02
 1.9721611E+01  2.3110870E-02
 1.9740141E+01  2.3968859E-02
 1.9758669E+01  2.4138432E-02
 1.9777197E+01  2.3635082E-02
 1.9795725E+01  2.3097815E-02
 1.9814255E+01  2.2001194E-02
 1.9832783E+01  2.2467496E-02
 1.9851311E+01  2.3494238E-02
 1.9869841E+01  2.4288215E-02
 1.9888369E+01  2.4368538E-02
 1.9906897E+01  2.4652522E-02
 1.9925425E+01  2.4591655E-02
 1.9943954E+01  2.3338627E-02
 1.9962482E+01  2.3134319E-02
 1.9981010E+01  2.2578029E-02
 1.9999540E+01  2.3556238E-02
 2.0018068E+01  2.4697233E-02
 2.0036596E+01  2.4388956E-02
 2.0055124E+01  2.4330003E-02
 2.0073654E+01  2.4166131E-02
 2.0092182E+01  2.4001107E-02
 2.0110710E+01  2.3745585E-02
 2.0129240E+01  2.4747116E-02
 2.0147768E+01  2.5868719E-02
 2.0166296E+01  2.3945116E-02
 2.0184826E+01  2.1775376E-02
 2.0203354E+01  2.1753157E-02
 2.0221882E+01  2.1598892E-02
 2.0240410E+01  2.1250613E-02
 2.0258940E+01  2.2265466E-02
 2.0277468E+01  2.3676317E-02
 2.0295996E+01  2.3167377E-02
 2.0314526E+01  2.2081250E-02
 2.0333054E+01  2.2271017E-02
 2.0351582E+01  2.2855552E-02
 2.0370110E+01  2.2222426E-02
 2.0388639E+01  2.2673476E-02
 2.0407167E+01  2.2729116E-02
 2.0425695E+01  2.2892058E-02
 2.0444225E+01  2.2394434E-02
 2.0462753E+01  2.2280358E-02
 2.0481281E+01  2.1735460E-02
 2.0499809E+01  2.1575995E-02
 2.0518339E+01  2.3546742E-02
 2.0536867E+01  2.4869421E-02
 2.0555395E+01  2.3851302E-02
 2.0573925E+01  2.2272086E-02
 2.0592453E+01  2.2122364E-02
 2.0610981E+01  2.3747589E-02
 2.0629509E+01  2.4226023E-02
 2.0648039E+01  2.1800486E-02
 2.0666567E+01  1.9695092E-02
 2.0685095E+01  2.1435359E-02
 2.0703625E+01  2.3174234E-02
 2.0722153E+01  2.2947688E-02
 2.0740681E+01  2.1496141E-02
 2.0759209E+01  2.0536378E-02
 2.0777739E+01  2.0944234E-02
 2.0796267E+01  2.2329176E-02
 2.0814795E+01  2.4233034E-02
 2.0833324E+01  2.5590396E-02
 2.0851852E+01  2.5327709E-02
 2.0870380E+01  2.3184288E-02
 2.0888908E+01  2.2290235E-02
 2.0907438E+01  2.3567343E-02
 2.0925966E+01  2.5520854E-02
 2.0944494E+01  2.5548730E-02
 2.0963024E+01  2.2706022E-02
 2.0981552E+01  2.2580367E-02
 2.1000080E+01  2.2018690E-02
 2.1018608E+01  2.1923969E-02
 2.1037138E+01  2.3151541E-02
 2.1055666E+01  2.3721859E-02
 2.1074194E+01  2.2384860E-02
 2.1092724E+01  2.1892736E-02
 2.1111252E+01  2.3307636E-02
 2.1129780E+01  2.4753515E-02
 2.1148310E+01  2.3082564E-02
 2.1166838E+01  2.2436168E-02
 2.1185366E+01  2.1776548E-02
 2.1203894E+01  2.2155635E-02
 2.1222424E+01  2.2712737E-02
 2.1240952E+01  2.3385622E-02
 2.1259480E+01  2.2565568E-02
 2.1278009E+01  2.1904131E-02
 2.1296537E+01  2.2822389E-02
 2.1315065E+01  2.2514176E-02
 2.1333593E+01  2.0984920E-02
 2.1352123E+01  2.0077793E-02
 2.1370651E+01  2.1572873E-02
 2.1389179E+01  2.3512330E-02
 2.1407709E+01  2.2309771E-02
 2.1426237E+01  2.1515340E-02
 2.1444765E+01  2.1257348E-02
 2.1463293E+01  2.2570739E-02
 2.1481823E+01  2.2797255E-02
 2.1500351E+01  2.1617619E-02
 2.1518879E+01  2.0449091E-02
 2.1537409E+01  1.9852500E-02
 2.1555937E+01  2.0642107E-02
 2.1574465E+01  2.1262389E-02
 2.1592993E+01  2.0030897E-02
 2.1611523E+01  2.0236466E-02
 2.1630051E+01  2.3414282E-02
 2.1648579E+01  2.3577036E-02
 2.1667109E+01  2.1617731E-02
 2.1685637E+01  2.1466954E-02
 2.1704165E+01  2.1906247E-02
 2.1722692E+01  2.2236589E-02
 2.1741222E+01  2.1543179E-02
 2.1759750E+01  2.1021666E-02
 2.1778278E+01  1.9809997E-02
 2.1796808E+01  1.7890636E-02
 2.1815336E+01  1.7618520E-02
 2.1833864E+01  1.8910961E-02
 2.1852392E+01  2.0694179E-02
 2.1870922E+01  2.1359874E-02
 2.1889450E+01  2.1668440E-02
 2.1907978E+01  2.0770742E-02
 2.1926508E+01  2.0327352E-02
 2.1945036E+01  1.8412162E-02
 2.1963564E+01  1.9074462E-02
 2.1982092E+01  2.0411395E-02
 2.2000622E+01  2.0225376E-02
 2.2019150E+01  2.1233987E-02
 2.2037678E+01  2.1146175E-02
 2.2056208E+01  2.0444207E-02
 2.2074736E+01  1.9669808E-02
 2.2093264E+01  2.0204689E-02
 2.2111794E+01  2.0727955E-02
 2.2130322E+01  2.0522067E-02
 2.2148849E+01  1.9838557E-02
 2.2167377E+01  1.9806055E-02
 2.2185907E+01  2.1137692E-02
 2.2204435E+01  2.1392642E-02
 2.2222963E+01  2.2164067E-02
 2.2241493E+01  2.1552609E-02
 2.2260021E+01  2.0588251E-02
 2.2278549E+01  2.0587487E-02
 2.2297077E+01  2.1019407E-02
 2.2315607E+01  2.1946345E-02
 2.2334135E+01  2.2827711E-02
 2.2352663E+01  2.1193387E-02
 2.2371193E+01  2.0476287E-02
 2.2389721E+01  2.0728106E-02
 2.2408249E+01  2.0278208E-02
 2.2426777E+01  2.1627828E-02
 2.2445307E+01  2.1985199E-02
 2.2463835E+01  1.9775497E-02
 2.2482363E+01  1.7815297E-02
 2.2500893E+01  1.8940398E-02
 2.2519421E+01  2.1094814E-02
 2.2537949E+01  2.2189176E-02
 2.2556477E+01  2.1344697E-02
 2.2575006E+01  1.8674355E-02
 2.2593534E+01  1.8328739E-02
 2.2612062E+01  1.9843521E-02
 2.2630592E+01  2.0551562E-02
 2.2649120E+01  1.9269515E-02
 2.2667648E+01  1.7884249E-02
 2.2686176E+01  1.9570103E-02
 2.2704706E+01  2.1775236E-02
 2.2723234E+01  2.1121003E-02
 2.2741762E+01  2.0608881E-02
 2.2760292E+01  1.9284254E-02
 2.2778820E+01  1.7643489E-02
 2.2797348E+01  1.7170977E-02
 2.2815876E+01  1.8211147E-02
 2.2834406E+01  1.8213296E-02
 2.2852934E+01  2.0152505E-02
 2.2871462E+01  2.1831434E-02
 2.2889992E+01  2.1974647E-02
 2.2908520E+01  2.1369245E-02
 2.2927048E+01  2.2062670E-02
 2.2945576E+01  2.2590404E-02
 2.2964106E+01  2.2316201E-02
 2.2982634E+01  2.1674896E-02
 2.3001162E+01  2.0842107E-02
 2.3019691E+01  2.0200951E-02
 2.3038219E+01  2.1383753E-02
 2.3056747E+01  2.2242524E-02
 2.3075277E+01  2.2616390E-02
 2.3093805E+01  2.2602268E-02
 2.3112333E+01  2.2787347E-02
 2.3130861E+01  2.2927623E-02
 2.3149391E+01  2.1951830E-02
 2.3167919E+01  2.2030309E-02
 2.3186447E+01  2.3315793E-02
 2.3204977E+01  2.6218535E-02
 2.3223505E+01  2.5613841E-02
 2.3242033E+01  2.5480121E-02
 2.3260561E+01  2.6689999E-02
 2.3279091E+01  2.7686575E-02
 2.3297619E+01  3.1207841E-02
 2.3316147E+01  3.3897106E-02
 2.3334677E+01  3.7424713E-02
 2.3353205E+01  4.4292491E-02
 2.3371733E+01  5.4184698E-02
 2.3390261E+01  6.8603352E-02
 2.3408791E+01  8.9651354E-02
 2.3427319E+01  1.1863509E-01
 2.3445847E+01  1.4930551E-01
 2.3464376E+01  1.7967039E-01
 2.3482904E+01  2.0822242E-01
 2.3501432E+01  2.3576561E-01
 2.3519960E+01  2.5245309E-01
 2.3538490E+01  2.5482786E-01
 2.3557018E+01  2.4706191E-01
 2.3575546E+01  2.4229710E-01
 2.3594076E+01  2.4243803E-01
 2.3612604E+01  2.3861125E-01
 2.3631132E+01  2.2129419E-01
 2.3649660E+01  1.9609976E-01
 2.3668190E+01  1.6676897E-01
 2.3686718E+01  1.3977185E-01
 2.3705246E+01  1.1583515E-01
 2.3723776E+01  9.5302701E-02
 2.3742304E+01  7.9702318E-02
 2.3760832E+01  6.6933230E-02
 2.3779360E+01  5.6537095E-02
 2.3797890E+01  4.7408927E-02
 2.3816418E+01  4.1194141E-02
 2.3834946E+01  3.6903638E-02
 2.3853476E+01  3.3543192E-02
 2.3872004E+01  3.0353066E-02
 2.3890532E+01  2.7928500E-02
 2.3909060E+01  2.5795853E-02
 2.3927589E+01  2.4606043E-02
 2.3946117E+01  2.4028141E-02
 2.3964645E+01  2.3013543E-02
 2.3983175E+01  2.2598464E-02
 2.4001703E+01  2.2083929E-02
 2.4020231E+01  2.0035975E-02
 2.4038761E+01  2.0424979E-02
 2.4057289E+01  2.2194253E-02
 2.4075817E+01  2.1249844E-02
 2.4094345E+01  1.9457132E-02
 2.4112875E+01  2.0714795E-02
 2.4131403E+01  2.1258075E-02
 2.4149931E+01  2.0490389E-02
 2.4168461E+01  1.9051678E-02
 2.4186989E+01  1.7951302E-02
 2.4205517E+01  1.7584397E-02
 2.4224045E+01  1.7148199E-02
 2.4242575E+01  1.7537499E-02
 2.4261103E+01  1.9493649E-02
 2.4279631E+01  2.0421404E-02
 2.4298161E+01  2.0269934E-02
 2.4316689E+01  1.8724205E-02
 2.4335217E+01  1.9054513E-02
 2.4353745E+01  1.9638831E-02
 2.4372274E+01  1.9384980E-02
 2.4390802E+01  1.9230736E-02
 2.4409330E+01  1.9058563E-02
 2.4427860E+01  1.8118775E-02
 2.4446388E+01  1.7842053E-02
 2.4464916E+01  1.8340664E-02
 2.4483444E+01  1.8585190E-02
 2.4501974E+01  1.7546043E-02
 2.4520502E+01  1.9139973E-02
 2.4539030E+01  1.9983502E-02
 2.4557560E+01  1.9605990E-02
 2.4576088E+01  1.8761810E-02
 2.4594616E+01  1.8707115E-02
 2.4613144E+01  2.0993518E-02
 2.4631674E+01  2.1731693E-02
 2.4650202E+01  2.0840215E-02
 2.4668730E+01  1.9233109E-02
 2.4687260E+01  1.8523375E-02
 2.4705788E+01  1.8380011E-02
 2.4724316E+01  1.7489666E-02
 2.4742844E+01  1.6323492E-02
 2.4761374E+01  1.6895946E-02
 2.4779902E+01  1.7688407E-02
 2.4798429E+01  1.7160408E-02
 2.4816959E+01  1.7898956E-02
 2.4835487E+01  1.9153748E-02
 2.4854015E+01  1.8953240E-02
 2.4872543E+01  1.9196292E-02
 2.4891073E+01  1.9438054E-02
 2.4909601E+01  1.7901257E-02
 2.4928129E+01  1.7336031E-02
 2.4946659E+01  1.7382998E-02
 2.4965187E+01  1.7903935E-02
 2.4983715E+01  1.7165167E-02
 2.5002245E+01  1.7406814E-02
 2.5020773E+01  1.8587878E-02
 2.5039301E+01  1.9068701E-02
 2.5057829E+01  1.8699495E-02
 2.5076359E+01  1.8403715E-02
 2.5094887E+01  1.8500108E-02
 2.5113415E+01  1.9350523E-02
 2.5131945E+01  2.0759629E-02
 2.5150473E+01  2.0796889E-02
 2.5169001E+01  2.0861177E-02
 2.5187529E+01  2.0661684E-02
 2.5206059E+01  1.9436931E-02
 2.5224586E+01  1.9710189E-02
 2.5243114E+01  2.1012288E-02
 2.5261644E+01  1.9502029E-02
 2.5280172E+01  1.7802116E-02
 2.5298700E+01  1.7887382E-02
 2.5317228E+01  1.9791966E-02
 2.5335758E+01  1.9662200E-02
 2.5354286E+01  1.8366253E-02
 2.5372814E+01  1.7494597E-02
 2.5391344E+01  1.7618326E-02
 2.5409872E+01  1.8807689E-02
 2.5428400E+01  1.8556109E-02
 2.5446928E+01  1.7723899E-02
 2.5465458E+01  1.8041985E-02
 2.5483986E+01  1.8655572E-02
 2.5502514E+01  1.8929332E-02
 2.5521044E+01  1.9356528E-02
 2.5539572E+01  1.9534327E-02
 2.5558100E+01  2.0509647E-02
 2.5576628E+01  1.8115712E-02
 2.5595158E+01  1.6965572E-02
 2.5613686E+01  1.8468674E-02
 2.5632214E+01  1.8708795E-02
 2.5650743E+01  1.9062597E-02
 2.5669271E+01  2.1213086E-02
 2.5687799E+01  2.1817690E-02
 2.5706327E+01  2.0709569E-02
 2.5724857E+01  1.9720240E-02
 2.5743385E+01  1.9242870E-02
 2.5761913E+01  1.9055923E-02
 2.5780443E+01  1.9614432E-02
 2.5798971E+01  2.0231204E-02
 2.5817499E+01  2.0249672E-02
 2.5836027E+01  1.9203585E-02
 2.5854557E+01  1.9588048E-02
 2.5873085E+01  2.0842372E-02
 2.5891613E+01  2.0935228E-02
 2.5910143E+01  2.0832103E-02
 2.5928671E+01  2.1785401E-02
 2.5947199E+01  2.1760026E-02
 2.5965729E+01  2.3071697E-02
 2.5984257E+01  2.5736675E-02
 2.6002785E+01  2.7692439E-02
 2.6021313E+01  2.8737037E-02
 2.6039843E+01  2.8701892E-02
 2.6058371E+01  2.8489407E-02
 2.6076899E+01  2.9617503E-02
 2.6095428E+01  3.2510497E-02
 2.6113956E+01  3.3572014E-02
 2.6132484E+01  3.4889691E-02
 2.6151012E+01  3.8099173E-02
 2.6169542E+01  4.1309237E-02
 2.6188070E+01  4.4534996E-02
 2.6206598E+01  4.7846578E-02
 2.6225128E+01  4.8216578E-02
 2.6243656E+01  4.7430780E-02
 2.6262184E+01  4.6768636E-02
 2.6280712E+01  4.6183951E-02
 2.6299242E+01  4.3903358E-02
 2.6317770E+01  4.0996395E-02
 2.6336298E+01  3.9553422E-02
 2.6354828E+01  3.6774840E-02
 2.6373356E+01  3.3973597E-02
 2.6391884E+01  3.2726396E-02
 2.6410412E+01  3.1883553E-02
 2.6428942E+01  3.0274890E-02
 2.6447470E+01  3.0738985E-02
 2.6465998E+01  2.9043188E-02
 2.6484528E+01  2.6923545E-02
 2.6503056E+01  2.4239900E-02
 2.6521584E+01  2.3282148E-02
 2.6540112E+01  2.4256734E-02
 2.6558641E+01  2.4846656E-02
 2.6577169E+01  2.3787620E-02
 2.6595697E+01  2.2750942E-02
 2.6614227E+01  2.1227984E-02
 2.6632755E+01  2.0426251E-02
 2.6651283E+01  1.9797726E-02
 2.6669811E+01  1.8887646E-02
 2.6688341E+01  1.9066522E-02
 2.6706869E+01  1.8548125E-02
 2.6725397E+01  1.8918766E-02
 2.6743927E+01  1.8887049E-02
 2.6762455E+01  1.8259378E-02
 2.6780983E+01  1.7950544E-02
 2.6799511E+01  1.7899496E-02
 2.6818041E+01  1.8409599E-02
 2.6836569E+01  1.7750893E-02
 2.6855097E+01  1.7764105E-02
 2.6873627E+01  1.7337047E-02
 2.6892155E+01  1.6442664E-02
 2.6910683E+01  1.6566910E-02
 2.6929213E+01  1.7861784E-02
 2.6947741E+01  1.6063927E-02
 2.6966269E+01  1.5951784E-02
 2.6984797E+01  1.7009484E-02
 2.7003326E+01  1.6595216E-02
 2.7021854E+01  1.8299235E-02
 2.7040382E+01  1.8492231E-02
 2.7058912E+01  1.6926896E-02
 2.7077440E+01  1.6947471E-02
 2.7095968E+01  1.8855348E-02
 2.7114496E+01  1.9179920E-02
 2.7133026E+01  2.0147936E-02
 2.7151554E+01  2.0882985E-02
 2.7170082E+01  2.0140816E-02
 2.7188612E+01  1.8375091E-02
 2.7207140E+01  1.7069772E-02
 2.7225668E+01  1.8188896E-02
 2.7244196E+01  1.8272791E-02
 2.7262726E+01  1.8368652E-02
 2.7281254E+01  1.7963463E-02
 2.7299782E+01  1.8572621E-02
 2.7318312E+01  1.7751407E-02
 2.7336840E+01  1.7657313E-02
 2.7355368E+01  1.7948745E-02
 2.7373896E+01  1.8223042E-02
 2.7392426E+01  1.8320438E-02
 2.7410954E+01  1.9540744E-02
 2.7429482E+01  2.0276211E-02
 2.7448011E+01  2.0641593E-02
 2.7466539E+01  2.2175277E-02
 2.7485067E+01  2.2588059E-02
 2.7503595E+01  2.2757171E-02
 2.7522125E+01  2.5052102E-02
 2.7540653E+01  2.6009735E-02
 2.7559181E+01  2.8636878E-02
 2.7577711E+01  3.3351827E-02
 2.7596239E+01  3.6783516E-02
 2.7614767E+01  3.9429802E-02
 2.7633295E+01  4.2220693E-02
 2.7651825E+01  4.5283910E-02
 2.7670353E+01  4.9067527E-02
 2.7688881E+01  4.9427431E-02
 2.7707411E+01  4.7897644E-02
 2.7725939E+01  4.8689660E-02
 2.7744467E+01  4.9841203E-02
 2.7762997E+01  5.1588312E-02
 2.7781525E+01  5.5773832E-02
 2.7800053E+01  5.9573784E-02
 2.7818581E+01  6.4699680E-02
 2.7837111E+01  6.8269663E-02
 2.7855639E+01  6.9021918E-02
 2.7874166E+01  6.6818565E-02
 2.7892696E+01  5.9266742E-02
 2.7911224E+01  5.0656289E-02
 2.7929752E+01  4.4385944E-02
 2.7948280E+01  3.8538452E-02
 2.7966810E+01  3.4557804E-02
 2.7985338E+01  3.1706616E-02
 2.8003866E+01  2.9645743E-02
 2.8022396E+01  2.8136389E-02
 2.8040924E+01  2.5419623E-02
 2.8059452E+01  2.2745417E-02
 2.8077980E+01  2.2380978E-02
 2.8096510E+01  2.1908391E-02
 2.8115038E+01  2.0198787E-02
 2.8133566E+01  1.7970897E-02
 2.8152096E+01  1.7028317E-02
 2.8170624E+01  1.6852196E-02
 2.8189152E+01  1.6835470E-02
 2.8207680E+01  1.7982246E-02
 2.8226210E+01  1.7911131E-02
 2.8244738E+01  1.5630148E-02
 2.8263266E+01  1.5124797E-02
 2.8281796E+01  1.6187454E-02
 2.8300323E+01  1.6317058E-02
 2.8318851E+01  1.6775988E-02
 2.8337379E+01  1.6744964E-02
 2.8355909E+01  1.5206601E-02
 2.8374437E+01  1.5540028E-02
 2.8392965E+01  1.5527536E-02
 2.8411495E+01  1.5326542E-02
 2.8430023E+01  1.5396479E-02
 2.8448551E+01  1.7454769E-02
 2.8467079E+01  1.7023588E-02
 2.8485609E+01  1.6600722E-02
 2.8504137E+01  1.6113911E-02
 2.8522665E+01  1.6795862E-02
 2.8541195E+01  1.7774461E-02
 2.8559723E+01  1.6575867E-02
 2.8578251E+01  1.5244580E-02
 2.8596779E+01  1.4721039E-02
 2.8615309E+01  1.4213948E-02
 2.8633837E+01  1.4742214E-02
 2.8652365E+01  1.5541069E-02
 2.8670895E+01  1.5280844E-02
 2.8689423E+01  1.5876167E-02
 2.8707951E+01  1.6218381E-02
 2.8726480E+01  1.6684176E-02
 2.8745008E+01  1.5635980E-02
 2.8763536E+01  1.4032648E-02
 2.8782064E+01  1.3473556E-02
 2.8800594E+01  1.3923083E-02
 2.8819122E+01  1.4726202E-02
 2.8837650E+01  1.5279806E-02
 2.8856180E+01  1.5874254E-02
 2.8874708E+01  1.5314643E-02
 2.8893236E+01  1.3365174E-02
 2.8911764E+01  1.3224346E-02
 2.8930294E+01  1.3031685E-02
 2.8948822E+01  1.4658515E-02
 2.8967350E+01  1.4116053E-02
 2.8985880E+01  1.3820999E-02
 2.9004408E+01  1.4680753E-02
 2.9022936E+01  1.2305001E-02
 2.9041464E+01  1.1149266E-02
 2.9059994E+01  1.2381109E-02
 2.9078522E+01  1.4775140E-02
 2.9097050E+01  1.4729061E-02
 2.9115580E+01  1.3327036E-02
 2.9134108E+01  1.4586281E-02
 2.9152636E+01  1.3516176E-02
 2.9171164E+01  1.2908281E-02
 2.9189693E+01  1.3629467E-02
 2.9208221E+01  1.4703044E-02
 2.9226749E+01  1.4694355E-02
 2.9245279E+01  1.2957020E-02
 2.9263807E+01  1.2983721E-02
 2.9282335E+01  1.5027639E-02
 2.9300863E+01  1.4218726E-02
 2.9319393E+01  1.3007226E-02
 2.9337921E+01  1.3522850E-02
 2.9356449E+01  1.4661173E-02
 2.9374979E+01  1.5468716E-02
 2.9393507E+01  1.5158589E-02
 2.9412035E+01  1.5157055E-02
 2.9430563E+01  1.6640855E-02
 2.9449093E+01  1.4042480E-02
 2.9467621E+01  1.3138458E-02
 2.9486149E+01  1.3407383E-02
 2.9504679E+01  1.4605363E-02
 2.9523207E+01  1.4437117E-02
 2.9541735E+01  1.4184465E-02
 2.9560263E+01  1.4258154E-02
 2.9578793E+01  1.4792600E-02
 2.9597321E+01  1.4871605E-02
 2.9615849E+01  1.4415989E-02
 2.9634378E+01  1.5888797E-02
 2.9652906E+01  1.6509261E-02
 2.9671434E+01  1.7752377E-02
 2.9689964E+01  1.5735326E-02
 2.9708492E+01  1.3847804E-02
 2.9727020E+01  1.4321254E-02
 2.9745548E+01  1.4775990E-02
 2.9764078E+01  1.6091004E-02
 2.9782606E+01  1.5940195E-02
 2.9801134E+01  1.6210921E-02
 2.9819664E+01  1.5644716E-02
 2.9838192E+01  1.5407965E-02
 2.9856720E+01  1.5751688E-02
 2.9875248E+01  1.4960682E-02
 2.9893778E+01  1.3388011E-02
 2.9912306E+01  1.3279309E-02
 2.9930834E+01  1.5132983E-02
 2.9949364E+01  1.5261821E-02
 2.9967892E+01  1.4397655E-02
 2.9986420E+01  1.3123670E-02
 3.0004948E+01  1.3552639E-02
 3.0023478E+01  1.4311967E-02
 3.0042006E+01  1.6164428E-02
 3.0060534E+01  1.6028415E-02
 3.0079063E+01  1.5361425E-02
 3.0097591E+01  1.5517600E-02
 3.0116119E+01  1.5774276E-02
 3.0134647E+01  1.7330386E-02
 3.0153177E+01  1.7096959E-02
 3.0171705E+01  1.6074335E-02
 3.0190233E+01  1.5459252E-02
 3.0208763E+01  1.3896376E-02
 3.0227291E+01  1.4793547E-02
 3.0245819E+01  1.6499627E-02
 3.0264347E+01  1.5451127E-02
 3.0282877E+01  1.6776020E-02
 3.0301405E+01  1.8315677E-02
 3.0319933E+01  1.9013440E-02
 3.0338463E+01  1.8039171E-02
 3.0356991E+01  2.0441161E-02
 3.0375519E+01  2.2497376E-02
 3.0394047E+01  2.2474017E-02
 3.0412577E+01  2.0431018E-02
 3.0431105E+01  2.1843741E-02
 3.0449633E+01  2.1901373E-02
 3.0468163E+01  2.0032834E-02
 3.0486691E+01  2.1131348E-02
 3.0505219E+01  2.3215141E-02
 3.0523746E+01  2.2849234E-02
 3.0542276E+01  2.0805109E-02
 3.0560804E+01  2.0959290E-02
 3.0579332E+01  2.2385372E-02
 3.0597862E+01  2.6794195E-02
 3.0616390E+01  2.6952256E-02
 3.0634918E+01  2.7337210E-02
 3.0653448E+01  2.7948068E-02
 3.0671976E+01  2.9128637E-02
 3.0690504E+01  3.0262619E-02
 3.0709032E+01  3.1471483E-02
 3.0727562E+01  3.2020748E-02
 3.0746090E+01  3.3381503E-02
 3.0764618E+01  3.6488403E-02
 3.0783148E+01  4.1012239E-02
 3.0801676E+01  4.3512989E-02
 3.0820204E+01  4.1840576E-02
 3.0838732E+01  4.1673314E-02
 3.0857262E+01  4.1587677E-02
 3.0875790E+01  4.4569798E-02
 3.0894318E+01  4.7690079E-02
 3.0912848E+01  4.9365252E-02
 3.0931376E+01  4.9013674E-02
 3.0949903E+01  4.6742022E-02
 3.0968431E+01  4.6306852E-02
 3.0986961E+01  4.3531220E-02
 3.1005489E+01  4.2733550E-02
 3.1024017E+01  4.1926410E-02
 3.1042547E+01  3.7270609E-02
 3.1061075E+01  3.3929061E-02
 3.1079603E+01  3.2030538E-02
 3.1098131E+01  3.2009684E-02
 3.1116661E+01  2.9975262E-02
 3.1135189E+01  2.7714251E-02
 3.1153717E+01  2.5242841E-02
 3.1172247E+01  2.4090802E-02
 3.1190775E+01  2.3849146E-02
 3.1209303E+01  2.2911502E-02
 3.1227831E+01  2.2110254E-02
 3.1246361E+01  2.1093123E-02
 3.1264889E+01  2.0872489E-02
 3.1283417E+01  2.1872092E-02
 3.1301947E+01  2.1522218E-02
 3.1320475E+01  2.0651085E-02
 3.1339003E+01  1.9764621E-02
 3.1357531E+01  1.6945241E-02
 3.1376060E+01  1.7841795E-02
 3.1394588E+01  1.8382881E-02
 3.1413116E+01  1.8592335E-02
 3.1431646E+01  1.7950658E-02
 3.1450174E+01  1.6212868E-02
 3.1468702E+01  1.6051536E-02
 3.1487230E+01  1.4576815E-02
 3.1505760E+01  1.4481696E-02
 3.1524288E+01  1.5906690E-02
 3.1542816E+01  1.5310318E-02
 3.1561346E+01  1.5606310E-02
 3.1579874E+01  1.4788095E-02
 3.1598402E+01  1.5029160E-02
 3.1616932E+01  1.6116064E-02
 3.1635460E+01  1.5858388E-02
 3.1653988E+01  1.7213844E-02
 3.1672516E+01  1.5905822E-02
 3.1691046E+01  1.3710900E-02
 3.1709574E+01  1.2214695E-02
 3.1728102E+01  1.3458088E-02
 3.1746632E+01  1.4160755E-02
 3.1765160E+01  1.4898608E-02
 3.1783688E+01  1.5875988E-02
 3.1802216E+01  1.7292541E-02
 3.1820745E+01  1.7545883E-02
 3.1839273E+01  1.5891088E-02
 3.1857801E+01  1.3655527E-02
 3.1876331E+01  1.4030075E-02
 3.1894859E+01  1.4409401E-02
 3.1913387E+01  1.4757318E-02
 3.1931915E+01  1.4857067E-02
 3.1950445E+01  1.7739698E-02
 3.1968973E+01  1.6439758E-02
 3.1987501E+01  1.7055437E-02
 3.2006031E+01  1.8030141E-02
 3.2024559E+01  1.8527037E-02
 3.2043087E+01  1.9217240E-02
 3.2061615E+01  2.0338491E-02
 3.2080143E+01  2.4555940E-02
 3.2098675E+01  2.6616504E-02
 3.2117203E+01  2.8287690E-02
 3.2135731E+01  3.1702515E-02
 3.2154259E+01  3.3849020E-02
 3.2172787E+01  3.6118060E-02
 3.2191315E+01  3.9130483E-02
 3.2209843E+01  4.1060396E-02
 3.2228374E+01  4.3424580E-02
 3.2246902E+01  4.5572162E-02
 3.2265430E+01  4.6567284E-02
 3.2283958E+01  4.7160417E-02
 3.2302486E+01  5.0600257E-02
 3.2321014E+01  5.4141257E-02
 3.2339542E+01  5.5462603E-02
 3.2358074E+01  5.5163559E-02
 3.2376602E+01  5.2346144E-02
 3.2395130E+01  4.5935392E-02
 3.2413658E+01  3.9951019E-02
 3.2432186E+01  3.3049062E-02
 3.2450714E+01  2.8466426E-02
 3.2469242E+01  2.5209082E-02
 3.2487774E+01  2.2824332E-02
 3.2506302E+01  2.1645937E-02
 3.2524830E+01  1.7752731E-02
 3.2543358E+01  1.8135184E-02
 3.2561886E+01  1.9681845E-02
 3.2580414E+01  2.1058600E-02
 3.2598942E+01  2.0395994E-02
 3.2617474E+01  1.9871736E-02
 3.2636002E+01  1.8306570E-02
 3.2654530E+01  1.6522294E-02
 3.2673058E+01  1.6734628E-02
 3.2691586E+01  1.8755872E-02
 3.2710114E+01  1.7264212E-02
 3.2728642E+01  1.6765673E-02
 3.2747173E+01  1.9322386E-02
 3.2765701E+01  1.9104019E-02
 3.2784229E+01  1.9831359E-02
 3.2802757E+01  1.9815478E-02
 3.2821285E+01  2.0493345E-02
 3.2839813E+01  2.1848293E-02
 3.2858341E+01  2.2881065E-02
 3.2876873E+01  2.4047600E-02
 3.2895401E+01  2.4670783E-02
 3.2913929E+01  2.6463779E-02
 3.2932457E+01  2.8004872E-02
 3.2950985E+01  2.9553920E-02
 3.2969513E+01  3.0098986E-02
 3.2988041E+01  3.2201041E-02
 3.3006573E+01  3.2561816E-02
 3.3025101E+01  3.3318631E-02
 3.3043629E+01  3.4763481E-02
 3.3062157E+01  3.7425868E-02
 3.3080685E+01  4.1873250E-02
 3.3099213E+01  4.4666573E-02
 3.3117741E+01  4.5428630E-02
 3.3136272E+01  4.5172580E-02
 3.3154800E+01  4.4617917E-02
 3.3173328E+01  4.4116218E-02
 3.3191856E+01  4.6956971E-02
 3.3210384E+01  5.0540674E-02
 3.3228912E+01  5.0312702E-02
 3.3247440E+01  4.6410892E-02
 3.3265972E+01  4.8244607E-02
 3.3284500E+01  5.7657730E-02
 3.3303028E+01  6.6638418E-02
 3.3321556E+01  6.8215258E-02
 3.3340084E+01  6.8446912E-02
 3.3358612E+01  6.6255480E-02
 3.3377140E+01  6.3988470E-02
 3.3395672E+01  6.0353365E-02
 3.3414200E+01  5.5951387E-02
 3.3432728E+01  5.1840387E-02
 3.3451256E+01  4.9816959E-02
 3.3469784E+01  4.7757611E-02
 3.3488312E+01  4.5149300E-02
 3.3506840E+01  4.0452063E-02
 3.3525372E+01  3.6178026E-02
 3.3543900E+01  2.8085198E-02
 3.3562428E+01  2.4903556E-02
 3.3580956E+01  2.3079814E-02
 3.3599483E+01  2.1517843E-02
 3.3618011E+01  1.9085106E-02
 3.3636539E+01  1.7895870E-02
 3.3655071E+01  1.7987940E-02
 3.3673599E+01  1.6992135E-02
 3.3692127E+01  1.4138906E-02
 3.3710655E+01  1.4749974E-02
 3.3729183E+01  1.3859719E-02
 3.3747711E+01  1.4639480E-02
 3.3766239E+01  1.5582819E-02
 3.3784771E+01  1.4370956E-02
 3.3803299E+01  1.4446312E-02
 3.3821827E+01  1.2750250E-02
 3.3840355E+01  9.7910147E-03
 3.3858883E+01  1.0636771E-02
 3.3877411E+01  1.2089053E-02
 3.3895939E+01  1.2027286E-02
 3.3914471E+01  9.8186312E-03
 3.3932999E+01  1.2523321E-02
 3.3951527E+01  1.2352794E-02
 3.3970055E+01  1.1058677E-02
 3.3988583E+01  1.1875289E-02
 3.4007111E+01  1.2069104E-02
 3.4025642E+01  1.1880322E-02
 3.4044170E+01  1.2728878E-02
 3.4062698E+01  1.4704001E-02
 3.4081226E+01  1.4701688E-02
 3.4099754E+01  1.1557404E-02
 3.4118282E+01  1.1331988E-02
 3.4136810E+01  1.2185905E-02
 3.4155342E+01  1.4815578E-02
 3.4173870E+01  1.2599172E-02
 3.4192398E+01  9.7000869E-03
 3.4210926E+01  1.2152587E-02
 3.4229454E+01  1.3055153E-02
 3.4247982E+01  1.4444016E-02
 3.4266510E+01  1.3319556E-02
 3.4285042E+01  1.1664136E-02
 3.4303570E+01  1.2617419E-02
 3.4322098E+01  1.2607460E-02
 3.4340626E+01  1.1924811E-02
 3.4359154E+01  1.4428644E-02
 3.4377682E+01  1.4367286E-02
 3.4396210E+01  1.2721263E-02
 3.4414742E+01  1.0598807E-02
 3.4433270E+01  1.2782057E-02
 3.4451797E+01  1.1841960E-02
 3.4470325E+01  8.4640039E-03
 3.4488853E+01  1.2550807E-02
 3.4507381E+01  1.4147012E-02
 3.4525909E+01  1.3825025E-02
 3.4544441E+01  1.0968893E-02
 3.4562969E+01  1.0916203E-02
 3.4581497E+01  9.8834764E-03
 3.4600025E+01  1.0385043E-02
 3.4618553E+01  1.1774063E-02
 3.4637081E+01  1.4538025E-02
 3.4655609E+01  1.4844568E-02
 3.4674141E+01  1.1690810E-02
 3.4692669E+01  8.9383917E-03
 3.4711197E+01  7.5193830E-03
 3.4729725E+01  9.3998797E-03
 3.4748253E+01  1.3542308E-02
 3.4766781E+01  1.5382860E-02
 3.4785309E+01  1.4864684E-02
 3.4803841E+01  1.3122898E-02
 3.4822369E+01  1.2985604E-02
 3.4840897E+01  1.1878190E-02
 3.4859425E+01  1.0743743E-02
 3.4877953E+01  1.1889858E-02
 3.4896481E+01  1.3955253E-02
 3.4915009E+01  1.4672573E-02
 3.4933540E+01  1.6944837E-02
 3.4952068E+01  1.6602330E-02
 3.4970596E+01  1.4219420E-02
 3.4989124E+01  1.3019053E-02
 3.5007652E+01  1.2521755E-02
 3.5026180E+01  1.1910497E-02
 3.5044708E+01  1.1841775E-02
 3.5063240E+01  1.0904935E-02
 3.5081768E+01  8.0961408E-03
 3.5100296E+01  9.5799584E-03
 3.5118824E+01  9.8435283E-03
 3.5137352E+01  8.7799402E-03
 3.5155880E+01  8.6880811E-03
 3.5174408E+01  1.0205167E-02
 3.5192940E+01  1.3580920E-02
 3.5211468E+01  1.6365444E-02
 3.5229996E+01  1.5526421E-02
 3.5248524E+01  1.6166518E-02
 3.5267052E+01  1.2352210E-02
 3.5285580E+01  9.5565310E-03
 3.5304108E+01  6.9433129E-03
 3.5322639E+01  9.7311679E-03
 3.5341167E+01  1.1250139E-02
 3.5359695E+01  1.0583190E-02
 3.5378223E+01  1.0305741E-02
 3.5396751E+01  1.3325036E-02
 3.5415279E+01  1.1834089E-02
 3.5433807E+01  8.5636349E-03
 3.5452339E+01  1.0762756E-02
 3.5470867E+01  1.2911250E-02
 3.5489395E+01  1.0261586E-02
 3.5507923E+01  8.1350608E-03
 3.5526451E+01  7.3666098E-03
 3.5544979E+01  1.0831395E-02
 3.5563507E+01  1.4111510E-02
 3.5582039E+01  1.4608171E-02
 3.5600567E+01  1.1997981E-02
 3.5619095E+01  8.8840555E-03
 3.5637623E+01  9.6486118E-03
 3.5656151E+01  1.2280464E-02
 3.5674679E+01  1.0477409E-02
 3.5693207E+01  7.4640140E-03
 3.5711739E+01  4.1141165E-03
 3.5730267E+01  7.1427994E-03
 3.5748795E+01  9.3356399E-03
 3.5767323E+01  1.2302942E-02
 3.5785851E+01  1.2504404E-02
 3.5804379E+01  8.4135029E-03
 3.5822906E+01  8.1297467E-03
 3.5841438E+01  1.1352628E-02
 3.5859966E+01  7.5581810E-03
 3.5878494E+01  7.4691633E-03
 3.5897022E+01  1.1679121E-02
 3.5915550E+01  1.1785693E-02
 3.5934078E+01  8.6225355E-03
 3.5952610E+01  7.4375723E-03
 3.5971138E+01  9.0158898E-03
 3.5989666E+01  1.2344391E-02
 3.6008194E+01  1.3677746E-02
 3.6026722E+01  1.2284046E-02
 3.6045250E+01  1.1379104E-02
 3.6063778E+01  1.1150546E-02
 3.6082310E+01  1.3829722E-02
 3.6100838E+01  1.3478490E-02
 3.6119366E+01  1.2179275E-02
 3.6137894E+01  1.0732940E-02
 3.6156422E+01  1.2507853E-02
 3.6174950E+01  1.5487581E-02
 3.6193478E+01  1.4125971E-02
 3.6212009E+01  1.1013577E-02
 3.6230537E+01  9.3672965E-03
 3.6249065E+01  1.4751635E-02
 3.6267593E+01  1.4744438E-02
 3.6286121E+01  1.0954625E-02
 3.6304649E+01  9.6057365E-03
 3.6323177E+01  1.0369289E-02
 3.6341709E+01  1.0770180E-02
 3.6360237E+01  9.3465708E-03
 3.6378765E+01  1.2505027E-02
 3.6397293E+01  9.0056155E-03
 3.6415821E+01  6.4976634E-03
 3.6434349E+01  9.4166733E-03
 3.6452877E+01  6.7097819E-03
 3.6471409E+01  5.4927636E-03
 3.6489937E+01  9.2859315E-03
 3.6508465E+01  8.1699779E-03
 3.6526993E+01  5.1194699E-03
 3.6545521E+01  7.3489561E-03
 3.6564049E+01  1.0336258E-02
 3.6582577E+01  9.5565906E-03
 3.6601109E+01  7.4395817E-03
 3.6619637E+01  7.9173222E-03
 3.6638165E+01  7.8568906E-03
 3.6656693E+01  8.8398419E-03
 3.6675220E+01  1.1940066E-02
 3.6693748E+01  1.5324482E-02
 3.6712276E+01  1.5476714E-02
 3.6730808E+01  1.4434031E-02
 3.6749336E+01  1.3335017E-02
 3.6767864E+01  1.9271931E-02
 3.6786392E+01  2.8659778E-02
 3.6804920E+01  3.5597909E-02
 3.6823448E+01  3.7481859E-02
 3.6841976E+01  3.7778795E-02
 3.6860508E+01  3.0464750E-02
 3.6879036E+01  2.6069688E-02
 3.6897564E+01  2.2721326E-02
 3.6916092E+01  1.5300285E-02
 3.6934620E+01  1.7680611E-02
 3.6953148E+01  1.9244881E-02
 3.6971676E+01  1.7694036E-02
 3.6990208E+01  1.1904423E-02
 3.7008736E+01  9.9027492E-03
 3.7027264E+01  1.0548419E-02
 3.7045792E+01  9.6557708E-03
 3.7064320E+01  1.1263811E-02
 3.7082848E+01  1.1886278E-02
 3.7101376E+01  1.0208989E-02
 3.7119907E+01  7.9167876E-03
 3.7138435E+01  5.3374795E-03
 3.7156963E+01  6.3148369E-03
 3.7175491E+01  8.4502036E-03
 3.7194019E+01  7.7789361E-03
 3.7212547E+01  6.0817692E-03
 3.7231075E+01  1.0322421E-02
 3.7249607E+01  1.0841094E-02
 3.7268135E+01  8.3157420E-03
 3.7286663E+01  8.9378962E-03
 3.7305191E+01  7.6321107E-03
 3.7323719E+01  6.9973655E-03
 3.7342247E+01  6.1840215E-03
 3.7360775E+01  6.0076504E-03
 3.7379307E+01  5.1399493E-03
 3.7397835E+01  1.8162420E-03
 3.7416363E+01  3.6724985E-03
 3.7434891E+01  6.0678385E-03
 3.7453419E+01  6.4896885E-03
 3.7471947E+01  8.6370381E-03
 3.7490475E+01  6.6832975E-03
 3.7509007E+01  6.1734496E-03
 3.7527534E+01  5.2628177E-03
 3.7546062E+01  1.8875235E-03
 3.7564590E+01  6.7020385E-03
 3.7583118E+01  1.0846355E-02
 3.7601646E+01  8.9879017E-03
 3.7620174E+01  7.6161888E-03
 3.7638706E+01  1.2544763E-02
 3.7657234E+01  1.5158844E-02
 3.7675762E+01  1.4091155E-02
 3.7694290E+01  8.3304020E-03
 3.7712818E+01  1.1295701E-03
 3.7731346E+01  7.4879138E-04
 3.7749874E+01  3.5146326E-03
 3.7768406E+01  5.0009242E-03
 3.7786934E+01  8.1172166E-03
 3.7805462E+01  7.4035367E-03
 3.7823990E+01  7.5268578E-03
 3.7842518E+01  6.9334526E-03
 3.7861046E+01  3.3681167E-03
 3.7879578E+01  7.1430164E-03
 3.7898106E+01  8.6249029E-03
 3.7916634E+01  9.6251396E-03
 3.7935162E+01  1.1085118E-02
 3.7953690E+01  7.8269979E-03
 3.7972218E+01  8.1831105E-03
 3.7990746E+01  9.2516160E-03
 3.8009277E+01  7.6014390E-03
 3.8027805E+01  5.9066270E-03
 3.8046333E+01  7.2002849E-03
 3.8064861E+01  6.0818316E-03
 3.8083389E+01  4.6598897E-03
 3.8101917E+01  6.5338998E-03
 3.8120445E+01  5.4389737E-03
 3.8138977E+01  3.6687532E-03
 3.8157505E+01  7.3759737E-03
 3.8176033E+01  6.7470074E-03
 3.8194561E+01  6.3025216E-03
 3.8213089E+01  8.6285314E-03
 3.8231617E+01  1.0799334E-02
 3.8250145E+01  7.4781640E-03
 3.8268677E+01  3.6881289E-03
 3.8287205E+01  5.8740615E-03
 3.8305733E+01  1.0196339E-02
 3.8324261E+01  8.3394703E-03
 3.8342789E+01  6.4948834E-03
 3.8361317E+01  1.0072135E-02
 3.8379845E+01  7.5170132E-03
 3.8398376E+01  8.3669974E-03
 3.8416904E+01  1.2177660E-02
 3.8435432E+01  9.9497559E-03
 3.8453960E+01  1.1299871E-02
 3.8472488E+01  9.2666410E-03
 3.8491016E+01  1.1952447E-02
 3.8509544E+01  8.0135195E-03
 3.8528076E+01  1.1084789E-03
 3.8546604E+01  2.9658752E-03
 3.8565132E+01  7.6612337E-03
 3.8583660E+01  1.5210626E-02
 3.8602188E+01  1.0598052E-02
 3.8620716E+01  6.0610338E-03
 3.8639244E+01  2.8800745E-03
 3.8657776E+01  4.1653994E-03
 3.8676304E+01  2.9734622E-03
 3.8694832E+01  8.2897097E-03
 3.8713360E+01  1.1076447E-02
 3.8731888E+01  4.4318326E-03
 3.8750416E+01  3.1545113E-03
 3.8768944E+01  5.8676964E-03
 3.8787476E+01  3.0835348E-03
 3.8806004E+01 -1.6910157E-03
 3.8824532E+01 -1.4524856E-03
 3.8843060E+01  3.7428313E-03
 3.8861588E+01  4.9090255E-03
 3.8880116E+01  4.6995245E-03
 3.8898643E+01 -1.3634082E-03
 3.8917175E+01  2.4322451E-03
 3.8935703E+01  7.8310845E-03
 3.8954231E+01  7.4987696E-03
 3.8972759E+01  5.0666514E-03
 3.8991287E+01 -8.0071384E-04
 3.9009815E+01  2.0556168E-03
 3.9028343E+01  2.5575622E-03
 3.9046875E+01  5.8056554E-03
 3.9065403E+01  7.7401842E-03
 3.9083931E+01  7.7930028E-03
 3.9102459E+01  5.3713396E-03
 3.9120987E+01  1.4133329E-02
 3.9139515E+01  9.1083236E-03
 3.9158043E+01  3.0195236E-03
 3.9176575E+01  3.8994057E-03
 3.9195103E+01  4.2581889E-03
 3.9213631E+01  3.1132125E-03
 3.9232159E+01  6.0311793E-03
 3.9250687E+01  6.1463448E-03
 3.9269215E+01  3.5598185E-03
 3.9287743E+01  9.6757514E-03
 3.9306274E+01  1.4864041E-02
 3.9324802E+01  1.4728330E-02
 3.9343330E+01  9.6785752E-03
 3.9361858E+01  2.6535566E-03
 3.9380386E+01  5.4701073E-03
 3.9398914E+01  1.1121882E-02
 3.9417442E+01  8.3871707E-03
 3.9435974E+01  8.1049856E-03
 3.9454502E+01  8.1980685E-03
 3.9473030E+01  1.3407972E-02
 3.9491558E+01  1.1725809E-02
 3.9510086E+01  3.3374093E-03
 3.9528614E+01  8.2967952E-03
 3.9547142E+01  9.9959923E-03
 3.9565674E+01  1.3905553E-02
 3.9584202E+01  9.5570311E-03
 3.9602730E+01  8.4919473E-03
 3.9621258E+01  1.9431839E-02
 3.9639786E+01  5.3374274E-03
 3.9658314E+01  8.2236314E-03
 3.9676842E+01  9.7561218E-03
 3.9695374E+01  1.0694660E-02
 3.9713902E+01  6.6309860E-03
 3.9732430E+01 -7.2259083E-04
 3.9750957E+01  9.0130391E-03
 3.9769485E+01  1.1681488E-02
 3.9788013E+01  8.4812846E-03
 3.9806545E+01  5.1401248E-03
 3.9825073E+01  3.8564054E-03
 3.9843601E+01  6.1328146E-03
 3.9862129E+01  8.0517828E-03
 3.9880657E+01  3.8025975E-03
 3.9899185E+01 -8.4261503E-03
 3.9917713E+01 -3.9843996E-03
 3.9936245E+01  7.0420727E-03
 3.9954773E+01  9.3197599E-03
 3.9973301E+01  7.6031992E-03
 3.9991829E+01  1.4171409E-03
 4.0010357E+01 -5.3482135E-03
 4.0028885E+01 -2.4473728E-03
 4.0047413E+01  5.6299106E-03
 4.0065945E+01  1.7123988E-02
 4.0084473E+01  1.2166546E-02
 4.0103001E+01  7.8937281E-03
 4.0121529E+01  5.8495873E-03
 4.0140057E+01 -3.2458398E-03
 4.0158585E+01  3.3297252E-03
 4.0177113E+01  9.3268603E-03
 4.0195644E+01  5.5957194E-03
 4.0214172E+01  2.4085972E-03
 4.0232700E+01  5.7245577E-03
 4.0251228E+01  6.9112298E-03
 4.0269756E+01  1.0020296E-02
 4.0288284E+01  7.6341480E-03
 4.0306812E+01  1.2082158E-02
 4.0325344E+01  8.6969184E-03
 4.0343872E+01  5.7715117E-03
 4.0362400E+01  1.3096338E-03
 4.0380928E+01 -2.3195322E-03
 4.0399456E+01  7.4650939E-03
 4.0417984E+01  1.5381062E-02
 4.0436512E+01  4.5457776E-03
 4.0455044E+01  1.8812872E-03
 4.0473572E+01  8.4366500E-03
 4.0492100E+01  2.1434932E-03
 4.0510628E+01  7.0361756E-03
 4.0529156E+01  1.5929982E-02
 4.0547684E+01  1.0056886E-02
 4.0566212E+01  1.1699701E-02
 4.0584743E+01  1.8759908E-02
 4.0603271E+01  2.3406187E-02
 4.0621799E+01  1.4552156E-02
 4.0640327E+01  8.0879331E-03
 4.0658855E+01 -4.8316442E-03
 4.0677383E+01 -1.7137794E-03
 4.0695911E+01 -1.7188083E-03
 4.0714443E+01  1.3891486E-02
 4.0732971E+01  1.4247036E-02
 4.0751499E+01  7.2018956E-03
 4.0770027E+01  1.2323038E-02
 4.0788555E+01  2.9098429E-02
 4.0807083E+01  1.3448644E-02
 4.0825611E+01  6.4901332E-03
 4.0844143E+01 -2.8667532E-04
 4.0862671E+01  7.6673785E-03
 4.0881199E+01  1.0504635E-02
 4.0899727E+01  6.0492721E-03
 4.0918255E+01  1.1145044E-03
 4.0936783E+01 -4.5302189E-03
 4.0955311E+01  3.3737021E-03
 4.0973843E+01  2.1812407E-02
 4.0992371E+01  7.6922532E-03
 4.1010899E+01 -3.5167034E-03
 4.1029427E+01  1.1296236E-02
 4.1047955E+01  2.3485865E-03
 4.1066483E+01  5.4780468E-03
 4.1085011E+01  2.1429250E-02
 4.1103542E+01  5.6666709E-03
 4.1122070E+01 -1.2135737E-02
 4.1140598E+01 -8.1826821E-03
 4.1159126E+01 -2.6558251E-03
 4.1177654E+01  3.6122851E-04
 4.1196182E+01  8.2705263E-03
 4.1214710E+01  1.3944170E-02
 4.1233242E+01 -3.4034778E-03
 4.1251770E+01  4.5479628E-06
 4.1270298E+01  8.2464423E-03
 4.1288826E+01 -3.9293850E-03
